4/6/1983,1.409301,1.41502986585,1.39784326829,1.409301,2618319
4/7/1983,1.41502986585,1.41502986585,1.40357213415,1.409301,1265520
4/8/1983,1.40930031535,1.40930031535,1.37492713693,1.380656,597849
4/11/1983,1.380656,1.39211372614,1.37492713693,1.380656,1056055
4/12/1983,1.39211327755,1.403571,1.38638441633,1.403571,855318
4/13/1983,1.409300544,1.432216,1.409300544,1.432216,1095330
4/14/1983,1.443674,1.44940286508,1.43507978576,1.443674,864045
4/15/1983,1.44940207147,1.45226741906,1.435079,1.435079,781132
4/18/1983,1.43508029963,1.440811,1.4257711197,1.440811,920775
4/19/1983,1.4408102409,1.457995,1.42935251267,1.457995,1348434
4/20/1983,1.45799465201,1.46372534799,1.45513113725,1.46086,541119
4/21/1983,1.46086073123,1.47231846245,1.449403,1.449403,1269884
4/22/1983,1.45226834942,1.46658959684,1.44367413439,1.449403,497480
4/25/1983,1.4494021378,1.46658872441,1.43221555118,1.455131,1278613
4/26/1983,1.46372448693,1.47231685938,1.45513028125,1.466588,741857
4/27/1983,1.4837763829,1.50096298193,1.46658978387,1.475184,1056055
4/28/1983,1.47804748351,1.48377634973,1.4723186173,1.480911,1557899
4/29/1983,1.48950379227,1.498098,1.48090958455,1.498098,1688817
5/2/1983,1.49809872704,1.50955645408,1.48377565162,1.486641,1828460
5/3/1983,1.47518396702,1.480911,1.46658975108,1.480911,1169515
5/4/1983,1.48299280183,1.49166620483,1.47142949791,1.477213,1219374
5/5/1983,1.46854030952,1.48299352136,1.45119534524,1.456977,2002021
5/6/1983,1.46275906178,1.50901231274,1.46275906178,1.497449,2170658
5/9/1983,1.48588494127,1.50322990167,1.4801032878,1.50034,1496111
5/10/1983,1.50612021253,1.50612021253,1.491667,1.491667,1331798
5/11/1983,1.49455680453,1.49744855693,1.48010359295,1.488777,683195
5/12/1983,1.48877681192,1.49166671382,1.4685400981,1.47143,1072357
5/13/1983,1.47721375252,1.47721375252,1.46565044271,1.474322,609687
5/16/1983,1.46853969531,1.480103,1.45697639062,1.480103,964257
5/17/1983,1.4801033463,1.485885,1.47142994069,1.485885,778324
5/18/1983,1.48299359238,1.53213858527,1.48299359238,1.491667,2231195
5/19/1983,1.47432130435,1.47432130435,1.45119469565,1.462758,3831084
5/20/1983,1.46275814051,1.482993,1.45697648778,1.482993,869128
5/23/1983,1.48588444774,1.50322940239,1.4829926969,1.494556,1318827
5/24/1983,1.49744862774,1.523467,1.49744862774,1.523467,959932
5/25/1983,1.51479234981,1.52346575016,1.50901069962,1.520574,1569621
5/26/1983,1.51479342007,1.57260996283,1.5090117658,1.555265,3753251
5/27/1983,1.55526506132,1.55526506132,1.53792009781,1.54081,566446
5/31/1983,1.54081052913,1.54370228244,1.50901234351,1.514794,1625831
6/1/1983,1.50322979244,1.517683,1.50322979244,1.517683,1318826
6/2/1983,1.52057527519,1.52346702778,1.47432203488,1.491667,990200
6/3/1983,1.48588534496,1.49744865504,1.46854037984,1.491667,2879798
6/6/1983,1.50323009795,1.50901175218,1.50034019591,1.50612,14714646
6/7/1983,1.51190406599,1.51190406599,1.49166734363,1.497449,1236669
6/8/1983,1.49744805689,1.50033980832,1.482993,1.482993,1202078
6/9/1983,1.48588475143,1.48877650286,1.47432144597,1.482993,1154514
6/10/1983,1.48877778083,1.503231,1.48588602692,1.503231,5076398
6/13/1983,1.50323034483,1.51479365517,1.50323034483,1.509012,2871150
6/14/1983,1.50901069962,1.520574,1.50901069962,1.520574,735084
6/15/1983,1.52057524747,1.5263569024,1.51768349494,1.523467,1599887
6/16/1983,1.52635569925,1.537919,1.52635569925,1.537919,1699341
6/17/1983,1.53792031061,1.54081021319,1.526357,1.526357,2923038
6/20/1983,1.52057524747,1.53213855734,1.51768349494,1.523467,601038
6/21/1983,1.51768390318,1.5234674098,1.49744903053,1.514794,921016
6/22/1983,1.51190409682,1.52057565649,1.50323068702,1.514794,1176133
6/23/1983,1.5147934064,1.52057506062,1.50612,1.50612,393486
6/24/1983,1.5061205902,1.514794,1.50323068702,1.514794,575094
6/27/1983,1.50612024735,1.51190375265,1.50323034483,1.509012,1647452
6/28/1983,1.51479396911,1.52057562548,1.497449,1.497449,1158837
6/29/1983,1.49455683089,1.49455683089,1.456977,1.456977,4194300
6/30/1983,1.45697669291,1.47432165354,1.45119503937,1.46854,1444223
7/1/1983,1.46275862897,1.488777,1.46275862897,1.488777,2559820
7/5/1983,1.48299280183,1.48299280183,1.468539597,1.477213,419430
7/6/1983,1.4685403451,1.47721375252,1.45697703529,1.474322,588066
7/7/1983,1.47432165354,1.47432165354,1.45119503937,1.46854,1223698
7/8/1983,1.4685403451,1.474322,1.46565044271,1.474322,410782
7/11/1983,1.47432175203,1.47721350406,1.47143,1.47143,1068033
7/12/1983,1.47143052694,1.47143052694,1.445414,1.445414,1539351
7/13/1983,1.43963155418,1.45119485983,1.42806824852,1.43096,786972
7/14/1983,1.44541390274,1.45697721396,1.43385059152,1.442524,1132893
7/15/1983,1.44541326531,1.44830316677,1.41072334694,1.416505,890748
7/18/1983,1.4078340972,1.41650565574,1.39916068852,1.410724,2235518
7/19/1983,1.4078340972,1.4136139028,1.40494234426,1.410724,1344770
7/20/1983,1.4107233871,1.43385,1.4107233871,1.43385,1712313
7/21/1983,1.49166630469,1.49166630469,1.480103,1.480103,1842033
7/22/1983,1.50612028137,1.526357,1.48588541288,1.526357,2019317
7/25/1983,1.53503037922,1.558157,1.53503037922,1.558157,1193429
7/26/1983,1.56104608696,1.595736,1.56104608696,1.595736,2200927
7/27/1983,1.59573632521,1.59573632521,1.54948309839,1.552373,1435575
7/28/1983,1.55526446714,1.55815621835,1.50322959649,1.511903,1037765
7/29/1983,1.49166620483,1.50033960783,1.46275794504,1.477213,2084179
8/1/1983,1.44541309887,1.45119475126,1.43095989294,1.448303,2702514
8/2/1983,1.45697640366,1.46275805605,1.44541309887,1.448303,687519
8/3/1983,1.43963165323,1.44541330645,1.42228669355,1.43385,1772849
8/4/1983,1.41959583522,1.43712170973,1.36701821169,1.387466,2173928
8/5/1983,1.37870212552,1.40499000253,1.37870212552,1.396228,2357942
8/8/1983,1.38454408368,1.43127974895,1.38454408368,1.396228,1262419
8/9/1983,1.40791174468,1.40791174468,1.36701804255,1.37286,5541806
8/10/1983,1.36117569027,1.36117569027,1.3085980885,1.320282,4685930
8/11/1983,1.32028208772,1.34949186842,1.30859817544,1.331966,2469207
8/12/1983,1.34365004294,1.36701786978,1.33780808623,1.358254,855877
8/15/1983,1.36993829445,1.40791195833,1.36993829445,1.40207,813083
8/16/1983,1.40206978723,1.40206978723,1.35825417167,1.37286,2409295
8/17/1983,1.36701820921,1.40206995816,1.36701820921,1.396228,2323707
8/18/1983,1.40791191888,1.41959583522,1.3845440862,1.387466,817362
8/19/1983,1.39038604184,1.39914991379,1.38454408368,1.396228,500688
8/22/1983,1.399151,1.42543889741,1.39622908394,1.399151,2837231
8/23/1983,1.41083490681,1.42543887864,1.40207102817,1.416675,770289
8/24/1983,1.40791191632,1.40791191632,1.39330608621,1.396228,603393
8/25/1983,1.39038628968,1.42543804489,1.3874662448,1.422518,1472108
8/26/1983,1.42543824,1.46049,1.42543824,1.46049,1159713
8/29/1983,1.46633298857,1.48093883353,1.45172714361,1.475095,693259
8/30/1983,1.47801512891,1.52182887193,1.47801512891,1.495541,4626018
8/31/1983,1.48385704314,1.489699,1.48385704314,1.489699,2473486
9/1/1983,1.48385819305,1.51890996139,1.48385819305,1.513068,1343726
9/2/1983,1.51890916667,1.542277,1.51306720833,1.542277,830201
9/6/1983,1.55980304104,1.57148695896,1.55396108209,1.565645,1223904
9/7/1983,1.57732936082,1.621145,1.57732936082,1.621145,3286567
9/8/1983,1.62406503943,1.63574896057,1.61530116385,1.629907,1681798
9/9/1983,1.62990679927,1.63574875912,1.600697,1.600697,6294976
9/12/1983,1.6065388332,1.63574863016,1.58901295502,1.591933,1617607
9/13/1983,1.59485479478,1.59485479478,1.54227716418,1.565645,1020633
9/14/1983,1.57732895911,1.57732895911,1.55396112268,1.571487,338071
9/15/1983,1.57148803704,1.57733,1.56564607407,1.57733,954302
9/16/1983,1.56564474809,1.56564474809,1.51890908397,1.530593,1555557
9/19/1983,1.5422771236,1.5773288764,1.53059320599,1.559803,462173
9/20/1983,1.54811928309,1.589013,1.54811928309,1.589013,1057008
9/21/1983,1.58901258741,1.6708,1.57148671329,1.6708,2672477
9/22/1983,1.67079991549,1.67079991549,1.63574816901,1.659116,3487700
9/23/1983,1.6532743299,1.70001,1.64743237113,1.70001,1211066
9/26/1983,1.70000983275,1.71169374913,1.67080004181,1.676642,905090
9/27/1983,1.682484,1.69416791667,1.65911616667,1.682484,1076265
9/28/1983,1.67079995789,1.69416778947,1.664958,1.664958,402262
9/29/1983,1.65911574101,1.68248356835,1.624064,1.624064,564879
9/30/1983,1.60069653992,1.60069653992,1.53059304183,1.536435,2880027
10/3/1983,1.536435,1.536435,1.50138325095,1.536435,838759
10/4/1983,1.5247514059,1.59485491882,1.5247514059,1.583171,979979
10/5/1983,1.56564516176,1.589013,1.55396124265,1.589013,1005655
10/6/1983,1.58901225899,1.6415898705,1.57732834532,1.624064,2405016
10/7/1983,1.70585212203,1.72921995932,1.70585212203,1.723378,2030568
10/10/1983,1.70585187543,1.70585187543,1.688326,1.688326,1461410
10/11/1983,1.70585183333,1.71753575,1.682484,1.682484,1213206
10/12/1983,1.68248416438,1.7116939589,1.67080024658,1.705852,1086964
10/13/1983,1.72921987713,1.74090379522,1.70585204096,1.711694,1493505
10/14/1983,1.70585195876,1.72337783505,1.68832608247,1.70001,395843
10/17/1983,1.69416868794,1.69416868794,1.63574907801,1.647433,866575
10/18/1983,1.68832672695,1.69416868794,1.63574907801,1.647433,866575
10/19/1983,1.65327496099,1.70585260993,1.63574907801,1.647433,5926948
10/20/1983,1.65911608392,1.69416783217,1.64743216783,1.6708,1617608
10/21/1983,1.66495918966,1.70585292414,1.66495918966,1.694169,3573285
10/24/1983,1.69416808219,1.7116939589,1.68248416438,1.705852,838759
10/25/1983,1.70585195876,1.71753587629,1.69416804124,1.70001,1788783
10/26/1983,1.70000991696,1.71169383391,1.66495816609,1.688326,939325
10/27/1983,1.68248395819,1.70585179094,1.676642,1.676642,111264
10/28/1983,1.67664204167,1.69416791667,1.67664204167,1.682484,1624027
10/31/1983,1.69416808219,1.71753591781,1.68832612329,1.705852,1279536
11/1/1983,1.71169370629,1.71169370629,1.65911608392,1.6708,2122576
11/2/1983,1.67080020619,1.70585195876,1.66495824742,1.70001,2347243
11/3/1983,1.70920423077,1.70920423077,1.67973519231,1.685629,625656
11/4/1983,1.65026561151,1.67973464029,1.638478,1.638478,892886
11/7/1983,1.65026583942,1.66205345255,1.60311538686,1.614903,1081643
11/8/1983,1.61490303346,1.61490303346,1.585434,1.585434,1153753
11/9/1983,1.59722219118,1.61490361765,1.58543457353,1.603116,468712
11/10/1983,1.60311542007,1.61490303346,1.57954019331,1.585434,1312818
11/11/1983,1.59722196014,1.626691,1.59132815217,1.626691,4258706
11/14/1983,1.63258457857,1.67384122857,1.63258457857,1.650266,1633070
11/15/1983,1.64437180576,1.65615941727,1.638478,1.638478,2441122
11/16/1983,1.62669114894,1.662054,1.62079734043,1.662054,1204654
11/17/1983,1.64437139146,1.66794660854,1.64437139146,1.656159,2099662
11/18/1983,1.64437139146,1.656159,1.63258378292,1.656159,1408258
11/21/1983,1.66794780851,1.67384161702,1.65026638298,1.662054,746546
11/22/1983,1.67384115862,1.72099161379,1.66205354483,1.709204,1688212
11/23/1983,1.71509738908,1.7563540273,1.71509738908,1.726885,1641554
11/25/1983,1.74456761905,1.74456761905,1.73278,1.73278,725337
11/28/1983,1.73277961644,1.74456723288,1.70920438356,1.720992,2042397
11/29/1983,1.72099247887,1.72099247887,1.673842,1.673842,2701987
11/30/1983,1.69741619377,1.71509761246,1.68562858131,1.70331,2237518
12/1/1983,1.69152319097,1.71509842708,1.69152319097,1.697417,820776
12/2/1983,1.68562994502,1.720992811,1.68562994502,1.715099,330855
12/5/1983,1.70331080903,1.70331080903,1.67384176389,1.697417,1999979
12/6/1983,1.70331042308,1.70331042308,1.685629,1.685629,487800
12/7/1983,1.673842,1.69741723944,1.673842,1.673842,1949078
12/8/1983,1.68562961972,1.68562961972,1.66205438028,1.673842,1667003
12/9/1983,1.66205438028,1.67973580986,1.66205438028,1.673842,1325543
12/12/1983,1.656159,1.67384041281,1.656159,1.656159,318130
12/13/1983,1.662054,1.67973542553,1.65026638298,1.662054,265108
12/14/1983,1.65026561151,1.66205322302,1.638478,1.638478,3166459
12/15/1983,1.60311619048,1.62669142857,1.60311619048,1.60901,511129
12/16/1983,1.60900961624,1.61490342435,1.57954057565,1.597222,1698816
12/19/1983,1.58543513455,1.65026705455,1.58543513455,1.620798,3350972
12/20/1983,1.61490418909,1.65026705455,1.61490418909,1.620798,1075280
12/21/1983,1.62079719203,1.626691,1.59132815217,1.626691,2101782
12/22/1983,1.62669123529,1.63847885294,1.603116,1.603116,1068918
12/23/1983,1.58543419259,1.60311561481,1.58543419259,1.591328,337218
12/27/1983,1.59722116968,1.632584,1.59722116968,1.632584,1020138
12/28/1983,1.62669181091,1.63258562182,1.60311656727,1.620798,3709399
12/29/1983,1.62669152113,1.673842,1.62079771127,1.673842,500525
12/30/1983,1.68562967025,1.68562967025,1.63847918996,1.644373,1493091
1/3/1984,1.63258419424,1.67973464029,1.63258419424,1.638478,1219500
1/4/1984,1.63258419424,1.65026561151,1.62669038849,1.638478,3501557
1/5/1984,1.65026630137,1.73867342466,1.63847868493,1.720992,3435809
1/6/1984,1.73278,1.74456761905,1.7092047619,1.73278,1838793
1/9/1984,1.7327789699,1.7917170301,1.72688516388,1.762248,2388100
1/10/1984,1.77403544369,1.77992924915,1.726885,1.726885,1410379
1/11/1984,1.72099119454,1.73867261092,1.6974159727,1.726885,1331906
1/12/1984,1.70920461806,1.72099223611,1.68562938194,1.697417,540821
1/13/1984,1.67384122857,1.67384122857,1.62669077143,1.650266,780480
1/16/1984,1.63847797173,1.667947,1.62669036042,1.667947,1037105
1/17/1984,1.667947,1.67384080565,1.65026558304,1.667947,931062
1/18/1984,1.66794742143,1.67384122857,1.63847838571,1.650266,1465521
1/19/1984,1.66205438028,1.68562961972,1.66205438028,1.673842,1404015
1/20/1984,1.69152362105,1.69152362105,1.679736,1.679736,710491
1/23/1984,1.67384229818,1.67384229818,1.620798,1.620798,6114464
1/24/1984,1.62079703704,1.63258465185,1.591328,1.591328,1338269
1/25/1984,1.60311561481,1.62079703704,1.57954038519,1.591328,1486729
1/26/1984,1.567752,1.57953960902,1.53238917293,1.567752,2243881
1/27/1984,1.555965,1.57954022727,1.54417738636,1.555965,1560960
1/30/1984,1.53828302344,1.53828302344,1.49702639063,1.508814,1705180
1/31/1984,1.508814,1.54417682813,1.49702639063,1.508814,1414621
2/1/1984,1.50881461417,1.53238984252,1.43808892913,1.497027,1703058
2/2/1984,1.47934541935,1.49113303226,1.45577019355,1.461664,1331906
2/3/1984,1.47345138889,1.50881422222,1.47345138889,1.485239,1985135
2/6/1984,1.46755758333,1.49702661111,1.45576997222,1.485239,3013757
2/7/1984,1.47934538735,1.491133,1.46166396838,1.491133,2362649
2/8/1984,1.52060183333,1.53238944444,1.47934519444,1.485239,1075281
2/9/1984,1.47934502439,1.49702643902,1.43808839024,1.449876,2029673
2/10/1984,1.44987723967,1.4616648595,1.40272676033,1.426302,2004221
2/13/1984,1.43219561826,1.43219561826,1.40272657261,1.420408,933182
2/14/1984,1.441615175,1.441615175,1.3820443,1.429701,2595647
2/15/1984,1.42970068966,1.42970068966,1.37012982759,1.382044,1107924
2/16/1984,1.39991525862,1.40587234483,1.35225856897,1.382044,1040777
2/17/1984,1.38204385586,1.38800094144,1.30460174324,1.322473,2606140
2/21/1984,1.32843,1.3343870852,1.31055874439,1.32843,1615723
2/22/1984,1.32843047598,1.37608717467,1.31055921397,1.364173,8038743
2/23/1984,1.3641721674,1.3641721674,1.3105584141,1.352258,1794082
2/24/1984,1.35821483478,1.38204316522,1.34630066957,1.370129,1825558
2/27/1984,1.39991539256,1.45352917355,1.38800121901,1.441615,1922080
2/28/1984,1.44161468376,1.44161468376,1.38204382906,1.393958,1691263
2/29/1984,1.39395758159,1.44757133473,1.39395758159,1.423743,728124
3/1/1984,1.42970082645,1.45352917355,1.40587247934,1.441615,931663
3/2/1984,1.42970082645,1.45352917355,1.40587247934,1.441615,3623835
3/5/1984,1.45352952941,1.48927205882,1.417787,1.417787,1485625
3/6/1984,1.42970091286,1.45352926141,1.41778673859,1.435658,1072252
3/7/1984,1.417786825,1.45352935,1.40587265,1.429701,511995
3/8/1984,1.42374408824,1.43565826471,1.39395864706,1.417787,763795
3/9/1984,1.42970051282,1.42970051282,1.393958,1.393958,1269496
3/12/1984,1.3999155625,1.4475722625,1.3999155625,1.429701,763796
3/13/1984,1.44161581967,1.47735836066,1.44161581967,1.45353,1233823
3/14/1984,1.45353,1.47140127049,1.44161581967,1.45353,2822267
3/15/1984,1.45353,1.47140127049,1.44161581967,1.45353,759599
3/16/1984,1.48927191235,1.50118608765,1.4833148247,1.495229,2024898
3/19/1984,1.48331417004,1.48331417004,1.45352874494,1.4714,822549
3/20/1984,1.45948582996,1.4714,1.44757165992,1.4714,579142
3/21/1984,1.45948673387,1.50118635484,1.45948673387,1.477358,663075
3/22/1984,1.48927244898,1.48927244898,1.44161573061,1.459487,549765
3/23/1984,1.45352917355,1.46544334711,1.42970082645,1.441615,799467
3/26/1984,1.44161491358,1.45352908642,1.42970074074,1.447572,321046
3/27/1984,1.43565782716,1.45352908642,1.42970074074,1.447572,270686
3/28/1984,1.44757290984,1.45948709016,1.44161581967,1.45353,652583
3/29/1984,1.45948617284,1.45948617284,1.43565782716,1.447572,684059
3/30/1984,1.447572,1.45352908642,1.4177865679,1.447572,929565
4/2/1984,1.4356576867,1.44757185837,1.388001,1.388001,1137301
4/3/1984,1.38800074576,1.41778616949,1.38204366102,1.405872,1466740
4/4/1984,1.39395774684,1.41778608439,1.39395774684,1.411829,654682
4/5/1984,1.411829,1.41778608439,1.39395774684,1.411829,369308
4/6/1984,1.39991508547,1.40587217094,1.38800091453,1.393958,493110
4/9/1984,1.40587192889,1.41778609778,1.33438691556,1.340344,2257815
4/10/1984,1.33438725792,1.34630142986,1.316516,1.316516,1261103
4/11/1984,1.310559,1.31651608636,1.29268774091,1.310559,5468277
4/12/1984,1.3284296652,1.3641721674,1.3284296652,1.352258,2322864
4/13/1984,1.36417251121,1.37012959641,1.31055874439,1.32843,5892143
4/16/1984,1.33438717117,1.33438717117,1.30460174324,1.322473,2331257
4/17/1984,1.334387,1.35225825446,1.32842991518,1.334387,3265019
4/18/1984,1.340344,1.34630108444,1.33438691556,1.340344,3470657
4/19/1984,1.34630083333,1.36417208333,1.33438666667,1.358215,761698
4/23/1984,1.37012916667,1.37608625,1.35225791667,1.358215,635797
4/24/1984,1.34630116964,1.37608659375,1.32842991518,1.334387,1607329
4/25/1984,1.34630083333,1.37012916667,1.34034375,1.358215,2205357
4/26/1984,1.37012940928,1.42970025316,1.37012940928,1.411829,3076169
4/27/1984,1.4237439125,1.45352935,1.4118297375,1.429701,1565362
4/30/1984,1.42970082645,1.44757208678,1.41182956612,1.441615,826746
5/1/1984,1.4475717439,1.465443,1.44161465854,1.465443,1242218
5/2/1984,1.4714,1.47735708502,1.4416145749,1.4714,1030285
5/3/1984,1.48331535918,1.48331535918,1.44161573061,1.459487,927466
5/4/1984,1.45876255556,1.4647905,1.38642722222,1.410539,1768845
5/7/1984,1.43465110833,1.446707,1.410539325,1.446707,2560988
5/8/1984,1.44670721311,1.47684694672,1.43465131967,1.470819,2102706
5/9/1984,1.47081889256,1.49493067769,1.45273505372,1.458763,1949254
5/10/1984,1.458763,1.458763,1.44067916116,1.458763,541229
5/11/1984,1.45876170464,1.45876170464,1.37437053165,1.428622,1490973
5/14/1984,1.43465066379,1.43465066379,1.3803991681,1.398483,709197
5/15/1984,1.39848282969,1.40451077293,1.37437105677,1.380399,1820687
5/16/1984,1.374371,1.374371,1.33217539912,1.374371,3458891
5/17/1984,1.3623168018,1.3743727027,1.338205,1.338205,3479623
5/18/1984,1.33217589041,1.35025972603,1.31409205479,1.32012,2355694
5/21/1984,1.31409205479,1.33820383562,1.30806410959,1.32012,1391436
5/22/1984,1.32011971963,1.32011971963,1.2658682243,1.28998,2621125
5/23/1984,1.2960081106,1.3201198894,1.2899801659,1.308064,1511709
5/24/1984,1.30203588785,1.3140917757,1.27189616822,1.28998,3875699
5/25/1984,1.30203577358,1.31409166038,1.26586811321,1.277924,1887044
5/29/1984,1.28998068269,1.29600862981,1.22970121154,1.253813,1990727
5/30/1984,1.26586856436,1.26586856436,1.20558910891,1.217645,9885208
5/31/1984,1.199561055,1.223672835,1.19353311,1.205589,3367648
6/1/1984,1.22970005854,1.24778388293,1.22367211707,1.235728,3322029
6/4/1984,1.24175655556,1.33820366667,1.24175655556,1.302036,5545007
6/5/1984,1.3140917757,1.3140917757,1.2658682243,1.28998,2140033
6/6/1984,1.3140931982,1.338205,1.3140931982,1.338205,1140520
6/7/1984,1.33820416,1.356288,1.33820416,1.356288,16699301
6/8/1984,1.362317,1.36834495133,1.34423314602,1.362317,1028541
6/11/1984,1.37437290265,1.37437290265,1.35628904867,1.362317,837763
6/12/1984,1.34423205357,1.35026,1.33217616071,1.35026,736154
6/13/1984,1.35026005333,1.36231594667,1.34423210667,1.356288,676017
6/14/1984,1.3502598371,1.35628778281,1.3201201086,1.332176,2233347
6/15/1984,1.33217583486,1.34423172477,1.30203611009,1.314092,866796
6/18/1984,1.3020372973,1.34423295045,1.3020372973,1.338205,1223467
6/19/1984,1.35025994619,1.35025994619,1.32614816143,1.344232,999511
6/20/1984,1.33217704955,1.338205,1.3020372973,1.338205,7326287
6/21/1984,1.3382039457,1.3382039457,1.3201201086,1.332176,2548546
6/22/1984,1.332176,1.332176,1.30806421719,1.332176,2175285
6/25/1984,1.34423295045,1.35628885135,1.33217704955,1.338205,4591112
6/26/1984,1.3502609009,1.36834475225,1.338205,1.338205,5240172
6/27/1984,1.326147,1.33820288182,1.30203523636,1.326147,1405952
6/28/1984,1.326147,1.326147,1.30806317727,1.326147,1482678
6/29/1984,1.32614816143,1.344232,1.32614816143,1.344232,2662598
7/2/1984,1.36231583857,1.36231583857,1.33217610762,1.344232,1325078
7/3/1984,1.35025922807,1.38642688596,1.33820334211,1.374371,1752256
7/5/1984,1.37437194714,1.38039989427,1.35026015859,1.368344,761038
7/6/1984,1.36231605286,1.41053962996,1.34423221145,1.368344,858501
7/9/1984,1.38642711207,1.398483,1.3803991681,1.398483,684312
7/10/1984,1.41053921849,1.45876278151,1.41053921849,1.434651,1432909
7/11/1984,1.43465088983,1.44670677966,1.41053911017,1.422595,476945
7/12/1984,1.398483,1.42259477586,1.37437122414,1.398483,991216
7/13/1984,1.41053984416,1.42259574026,1.36834420779,1.392456,1781286
7/16/1984,1.39245505603,1.41053888793,1.36834328017,1.398483,1130153
7/17/1984,1.39848311111,1.42259488889,1.39245516667,1.410539,2407537
7/18/1984,1.41053888793,1.41053888793,1.36231533621,1.398483,707123
7/19/1984,1.39848357143,1.39848357143,1.33820410714,1.35026,814954
7/20/1984,1.36231522609,1.39848288696,1.36231522609,1.386427,352524
7/23/1984,1.38642784141,1.38642784141,1.36231605286,1.368344,1378993
7/24/1984,1.368344,1.38642784141,1.36231605286,1.368344,1235909
7/25/1984,1.368344,1.38039989427,1.35628810573,1.368344,582702
7/26/1984,1.38040085398,1.38040085398,1.35026109735,1.362317,2428271
7/27/1984,1.35026109735,1.39848470796,1.33820519469,1.362317,1186140
7/30/1984,1.36834383929,1.392455625,1.33820410714,1.35026,1627834
7/31/1984,1.3442318914,1.36231572851,1.3140921629,1.332176,1376920
8/1/1984,1.34423150431,1.44067860776,1.34423150431,1.398483,4628443
8/2/1984,1.39848343333,1.446707,1.39848343333,1.446707,3736762
8/3/1984,1.494931,1.51904279032,1.47684715726,1.494931,4638809
8/6/1984,1.50639615079,1.53689,1.48809984127,1.53689,7585546
8/7/1984,1.52469215686,1.57958107451,1.51859338824,1.555186,1834386
8/8/1984,1.55518630952,1.56128507937,1.53689,1.53689,1516699
8/9/1984,1.53689050951,1.61007577186,1.51249542205,1.603977,3021100
8/10/1984,1.59787836567,1.65276731716,1.59787836567,1.634471,4297996
8/13/1984,1.62227285057,1.6344703908,1.58568022989,1.591779,2723909
8/14/1984,1.62227308397,1.62227308397,1.597878,1.597878,1633525
8/15/1984,1.57348268966,1.60397654023,1.5490876092,1.591779,1373227
8/16/1984,1.57958168702,1.62227308397,1.57958168702,1.597878,1268698
8/17/1984,1.61007577186,1.62227331559,1.59787822814,1.603977,1215408
8/20/1984,1.59787836567,1.634471,1.59787836567,1.634471,2289395
8/21/1984,1.64666822878,1.67106331365,1.62227314391,1.652767,1793394
8/22/1984,1.65276677037,1.65276677037,1.61007537778,1.646668,2721860
8/23/1984,1.634471,1.64666854478,1.62837222761,1.634471,510348
8/24/1984,1.63446962909,1.68325976727,1.63446962909,1.677161,965359
8/27/1984,1.68326054015,1.68326054015,1.64666791971,1.671063,483704
8/28/1984,1.65886577122,1.67716208487,1.64666822878,1.652767,2496404
8/29/1984,1.65886608955,1.67106363433,1.62837222761,1.634471,1858980
8/30/1984,1.622272,1.64056830075,1.61617323308,1.622272,707110
8/31/1984,1.61007591045,1.634471,1.59787836567,1.634471,936663
9/4/1984,1.62227223221,1.628371,1.61617346442,1.628371,979706
9/5/1984,1.616174,1.62837153962,1.59177892075,1.616174,942813
9/6/1984,1.62837222761,1.64056977239,1.62837222761,1.634471,563638
9/7/1984,1.65276731716,1.65886608955,1.62227345522,1.634471,850581
9/10/1984,1.62227345522,1.64666854478,1.61617468284,1.634471,545191
9/11/1984,1.64666746324,1.67106253676,1.64666746324,1.658865,1367079
9/12/1984,1.646668,1.65886554074,1.63447045926,1.646668,1918419
9/13/1984,1.63447030216,1.695458,1.63447030216,1.695458,2672670
9/14/1984,1.70155676978,1.70765553957,1.67716169065,1.695458,1662220
9/17/1984,1.68326038298,1.719853,1.68326038298,1.719853,1733956
9/18/1984,1.7259509338,1.750346,1.71985216725,1.750346,1908172
9/19/1984,1.73814876761,1.76254383803,1.72595123239,1.73205,1965561
9/20/1984,1.71985292308,1.75034676923,1.71985292308,1.744248,1375277
9/21/1984,1.73205,1.75034630282,1.73205,1.73205,1848734
9/24/1984,1.72595169231,1.75034676923,1.71985292308,1.744248,1137524
9/25/1984,1.73814954064,1.73814954064,1.70765568905,1.725952,4334890
9/26/1984,1.71985331183,1.74424839427,1.701557,1.701557,1545393
9/27/1984,1.71375376786,1.71985253571,1.67106239286,1.707655,1940965
9/28/1984,1.66496431111,1.66496431111,1.62227291852,1.646668,2094684
10/1/1984,1.63447045926,1.65886554074,1.62837168889,1.646668,760399
10/2/1984,1.64056853558,1.67106237453,1.628371,1.628371,754250
10/3/1984,1.61617337209,1.63446967442,1.56128446512,1.573482,4586992
10/4/1984,1.57348291603,1.597878,1.57348291603,1.597878,1649922
10/5/1984,1.61007469663,1.64666730337,1.61007469663,1.628371,795242
10/8/1984,1.62227331559,1.62837208745,1.59177945627,1.603977,311538
10/9/1984,1.60397646038,1.62227276981,1.59787769057,1.616174,2705463
10/10/1984,1.61617323308,1.622272,1.57348186466,1.622272,672267
10/11/1984,1.61617414815,1.646668,1.61617414815,1.646668,323835
10/12/1984,1.63446962909,1.68935853455,1.63446962909,1.677161,1133425
10/15/1984,1.68326046043,1.71375430935,1.67106292086,1.695458,4402527
10/16/1984,1.68935939259,1.69545816296,1.63447045926,1.646668,625126
10/17/1984,1.64666746324,1.67106253676,1.63446992647,1.658865,842383
10/18/1984,1.64666784173,1.695458,1.64666784173,1.695458,942813
10/19/1984,1.69545814841,1.78084093286,1.69545814841,1.725952,3488408
10/22/1984,1.72595130357,1.72595130357,1.707655,1.707655,1699113
10/23/1984,1.695458,1.70765553957,1.68326046043,1.695458,2555843
10/24/1984,1.68935991103,1.73205131673,1.68935991103,1.713755,600530
10/25/1984,1.70765553957,1.71375430935,1.68935923022,1.695458,3254754
10/26/1984,1.68326054015,1.69545808029,1.65276668978,1.671063,2115180
10/29/1984,1.66496376838,1.67106253676,1.658865,1.658865,879275
10/30/1984,1.65886613718,1.70155754513,1.64666859206,1.68936,1076036
10/31/1984,1.67106223273,1.68325976727,1.67106223273,1.677161,2027048
11/1/1984,1.610074,1.6222715303,1.5978764697,1.610074,2201265
11/2/1984,1.60933584906,1.64633207547,1.60316981132,1.634,4058522
11/5/1984,1.62783283271,1.658663,1.62166679926,1.658663,1031862
11/6/1984,1.66482981818,1.69566,1.66482981818,1.69566,2321183
11/7/1984,1.689494,1.6956600365,1.67099589051,1.689494,1366355
11/8/1984,1.689494,1.6956600365,1.67716192701,1.689494,2532015
11/9/1984,1.6956600365,1.70182607299,1.67099589051,1.689494,1216340
11/12/1984,1.68332792727,1.70182603636,1.68332792727,1.69566,916309
11/13/1984,1.6833279635,1.6956600365,1.67099589051,1.689494,1558943
11/14/1984,1.6833278913,1.70799203623,1.67716185507,1.701826,906173
11/15/1984,1.701826,1.701826,1.68949392754,1.701826,1936008
11/16/1984,1.7018259639,1.7203240722,1.6894938917,1.707992,1246749
11/19/1984,1.69565996377,1.72649014493,1.68949392754,1.701826,1946144
11/20/1984,1.68332703309,1.69565909926,1.66482893382,1.677161,794676
11/21/1984,1.68949306618,1.68949306618,1.66482893382,1.677161,1552862
11/23/1984,1.67099496691,1.68949306618,1.66482893382,1.677161,425719
11/26/1984,1.6771620369,1.6771620369,1.6586639262,1.670996,1319729
11/27/1984,1.658663,1.67099506691,1.64633093309,1.658663,2002908
11/28/1984,1.65249811321,1.65249811321,1.62783396226,1.634,1220394
11/29/1984,1.62166807663,1.62783411494,1.59083788506,1.609336,1858973
11/30/1984,1.62783303422,1.6524971711,1.60933493156,1.621667,887928
12/3/1984,1.609336,1.62783411494,1.60316996169,1.609336,620333
12/4/1984,1.60933483083,1.65249706767,1.60933483083,1.640165,1516371
12/5/1984,1.62783407634,1.62783407634,1.60316992366,1.615502,727776
12/6/1984,1.61550188679,1.64633207547,1.60933584906,1.634,975099
12/7/1984,1.61550192424,1.63400003788,1.61550192424,1.627834,867656
12/10/1984,1.62783396226,1.64633207547,1.62783396226,1.634,839274
12/11/1984,1.62783396226,1.65249811321,1.62783396226,1.634,1054161
12/12/1984,1.62783396226,1.64016603774,1.62783396226,1.634,2211712
12/13/1984,1.62783303422,1.64016510266,1.61550096578,1.621667,1064298
12/14/1984,1.60933596183,1.62783407634,1.60316992366,1.615502,1044025
12/17/1984,1.62783313846,1.62783313846,1.57850486154,1.603169,4626149
12/18/1984,1.61550181273,1.646332,1.61550181273,1.646332,2240093
12/19/1984,1.640165,1.66482913534,1.640165,1.640165,1913709
12/20/1984,1.65866418939,1.66483022727,1.627834,1.627834,1974525
12/21/1984,1.61550110425,1.64016524324,1.55384075676,1.597003,2894891
12/24/1984,1.60933493156,1.62783303422,1.59700286312,1.621667,660878
12/26/1984,1.621667139,1.621667139,1.59083696525,1.597003,261513
12/27/1984,1.60933503462,1.61550106923,1.59700296538,1.603169,3651049
12/28/1984,1.59083696525,1.60316903475,1.57850489575,1.597003,808866
12/31/1984,1.60933493156,1.64633113688,1.59700286312,1.621667,1214313
1/2/1985,1.6216668985,1.6586631015,1.6216668985,1.640165,2306993
1/3/1985,1.640165,1.64633103383,1.62783293233,1.640165,924419
1/4/1985,1.63400003788,1.64633211364,1.627834,1.627834,843329
1/7/1985,1.646332,1.66483011236,1.63399992509,1.646332,2653649
1/8/1985,1.64633096642,1.65866303358,1.64016493284,1.652497,812921
1/9/1985,1.664829,1.664829,1.65249693333,1.664829,855493
1/10/1985,1.66482981818,1.69566,1.65866378182,1.69566,4555195
1/11/1985,1.6956600365,1.70182607299,1.67099589051,1.689494,2613104
1/14/1985,1.67716181949,1.707992,1.67716181949,1.707992,7401432
1/15/1985,1.70799280496,1.75115507801,1.69566072695,1.738823,13252024
1/16/1985,1.7758179654,1.80048210381,1.73882175779,1.781984,35071162
1/17/1985,1.78198503819,1.78198503819,1.76965296181,1.775819,2856372
1/18/1985,1.78814996564,1.80664806873,1.78198393127,1.794316,6120222
1/21/1985,1.78814960265,1.862142,1.78814960265,1.862142,4640341
1/22/1985,1.868309,1.91763729043,1.8621429637,1.868309,6483095
1/23/1985,1.87447496393,1.89297307213,1.8621428918,1.880641,1633950
1/24/1985,1.868309,1.89297314521,1.8621429637,1.868309,2384027
1/25/1985,1.86214254603,1.942301,1.86214254603,1.942301,2448899
1/28/1985,1.923802725,1.973131,1.91763669062,1.973131,2031289
1/29/1985,1.94230188679,1.9608,1.92380377358,1.9608,1467717
1/30/1985,1.96696603774,1.96696603774,1.92996981132,1.9608,3861880
1/31/1985,1.92380206452,1.93613412903,1.88680587097,1.91147,1573134
2/1/1985,1.8991390719,1.91147114379,1.886807,1.886807,1072406
2/4/1985,1.88064089286,1.90530503571,1.88064089286,1.899139,4348417
2/5/1985,1.8991390719,1.90530510784,1.8744749281,1.886807,1613678
2/6/1985,1.88064013289,1.89913823256,1.83747790033,1.855976,4508571
2/7/1985,1.85597682026,1.886807,1.84981078431,1.886807,1439336
2/8/1985,1.88680583923,1.917636,1.87447377492,1.917636,2430655
2/11/1985,1.91888213681,1.91888213681,1.90642186319,1.912652,1432552
2/12/1985,1.90019328383,1.91265356766,1.88150285809,1.887733,1470672
2/13/1985,1.88150285809,1.89396314191,1.86904257426,1.887733,1083442
2/14/1985,1.88773242,1.88773242,1.85658172,1.869042,3503131
2/15/1985,1.85658127703,1.85658127703,1.844121,1.844121,4712977
2/19/1985,1.86904067797,1.86904067797,1.83789,1.83789,2319371
2/20/1985,1.83789013605,1.84412027211,1.82542986395,1.83166,3978645
2/21/1985,1.83166113993,1.83166113993,1.81297072014,1.825431,3180105
2/22/1985,1.81919972789,1.83789013605,1.81296959184,1.83166,2622334
2/25/1985,1.83789,1.83789,1.83789,1.83789,894844
2/26/1985,1.83789072391,1.85658113805,1.83166058586,1.850351,1669304
2/27/1985,1.84411973154,1.86904026846,1.84411973154,1.85658,1131596
2/28/1985,1.86904172185,1.881502,1.86281158278,1.881502,1914082
3/1/1985,1.89396328803,1.93757428479,1.88150300324,1.925114,1942170
3/4/1985,1.91265328197,1.91888342295,1.88773271803,1.900193,2275229
3/5/1985,1.91265342434,1.93134384868,1.88150271711,1.893963,2357490
3/6/1985,1.89396244156,1.93757341883,1.89396244156,1.918883,3378736
3/7/1985,1.90642357282,1.95003456958,1.90019343042,1.925114,1701405
3/8/1985,1.91888315924,1.956264,1.91888315924,1.956264,1237933
3/11/1985,1.943802,1.97495267308,1.93757186538,1.943802,2548099
3/12/1985,1.93134384868,1.94380413158,1.86904243421,1.893963,2162872
3/13/1985,1.88150213953,1.91265283721,1.86904186047,1.875272,704237
3/14/1985,1.86904104235,1.91888213681,1.85658076873,1.912652,1428540
3/15/1985,1.90019224662,1.91888266216,1.844121,1.844121,1460641
3/18/1985,1.8441215786,1.87527228094,1.8441215786,1.862812,1163697
3/19/1985,1.85035200987,1.91265342434,1.85035200987,1.893963,985130
3/20/1985,1.88150228,1.88150228,1.85658172,1.869042,533695
3/21/1985,1.85658185953,1.87527228094,1.8441215786,1.862812,838664
3/22/1985,1.86904186047,1.88773227907,1.8565815814,1.875272,1037296
3/25/1985,1.875272,1.88773227907,1.8565815814,1.875272,529683
3/26/1985,1.881502,1.90642255629,1.86904172185,1.881502,1183761
3/27/1985,1.887733,1.89396314191,1.87527271617,1.887733,627995
3/28/1985,1.88773256187,1.88773256187,1.85035171906,1.862812,1530864
3/29/1985,1.87527040268,1.87527040268,1.84411973154,1.85658,1029271
4/1/1985,1.86281186,1.87527214,1.85658172,1.869042,1155672
4/2/1985,1.875272,1.88150213953,1.86281172093,1.875272,1123570
4/3/1985,1.86281229276,1.893963,1.86281229276,1.893963,973091
4/4/1985,1.87527271617,1.89396314191,1.87527271617,1.887733,1089461
4/8/1985,1.887733,1.887733,1.87527271617,1.887733,973091
4/9/1985,1.86904172185,1.881502,1.86904172185,1.881502,1139621
4/10/1985,1.90642284,1.90642284,1.85658172,1.869042,2243127
4/11/1985,1.87527214,1.88150228,1.86281186,1.869042,1613125
4/12/1985,1.85658,1.86904026846,1.84411973154,1.85658,2680520
4/15/1985,1.84412144,1.869042,1.84412144,1.869042,475510
4/16/1985,1.85035113851,1.86281141554,1.82543058446,1.844121,1928127
4/17/1985,1.81920069686,1.82543083624,1.76312944251,1.78805,5419220
4/18/1985,1.75689886219,1.76935913781,1.75066872438,1.763129,1607107
4/19/1985,1.769359,1.77558913732,1.75066858803,1.769359,1542903
4/22/1985,1.756899,1.756899,1.73197844681,1.756899,1956216
4/23/1985,1.73197901754,1.77559,1.73197901754,1.77559,1414494
4/24/1985,1.750669,1.77558955516,1.74443886121,1.750669,11913859
4/25/1985,1.769359,1.769359,1.73197817606,1.769359,1629177
4/26/1985,1.75689886219,1.76935913781,1.75066872438,1.763129,2112714
4/29/1985,1.76312927758,1.76312927758,1.74443886121,1.750669,1264016
4/30/1985,1.738209,1.74443913978,1.73197886022,1.738209,1536883
5/1/1985,1.73820914029,1.75689956115,1.731979,1.731979,6336133
5/2/1985,1.72574872043,1.738209,1.71951858065,1.738209,2451790
5/3/1985,1.73820872242,1.75689913879,1.73197858363,1.750669,1247965
5/6/1985,1.75823171739,1.76453362319,1.739326,1.739326,737872
5/7/1985,1.75193018571,1.764534,1.73932637143,1.764534,1049285
5/8/1985,1.76453280576,1.76453280576,1.74562709712,1.751929,3009011
5/9/1985,1.75823128723,1.777137,1.75823128723,1.777137,1362683
5/10/1985,1.78343858131,1.82755190311,1.7771366782,1.82125,2479409
5/13/1985,1.83385370833,1.83385370833,1.80234419444,1.814948,1309128
5/14/1985,1.82755238095,1.86536380952,1.82755238095,1.85276,2112456
5/15/1985,1.85906218855,1.89057171717,1.85276028283,1.871666,2757102
5/16/1985,1.88426947697,1.915779,1.87796757237,1.915779,1263506
5/17/1985,1.92838337419,1.95989290645,1.92838337419,1.953591,3931350
5/20/1985,1.9724952943,2.0040048038,1.96619339241,1.991401,3042732
5/21/1985,1.99140209464,2.00400590536,1.97879828391,1.997704,1650294
5/22/1985,1.991401,2.0040048038,1.9850990981,1.991401,3881764
5/23/1985,1.98510018927,1.997704,1.96619447319,1.997704,2294940
5/24/1985,2.00400470476,2.01030660635,1.97249519683,1.985099,2277090
5/28/1985,1.97879771061,1.98509961415,1.94728819293,1.959892,1771290
5/29/1985,1.95359019231,1.97879780769,1.94728828846,1.966194,1991461
5/30/1985,1.97249590385,1.97879780769,1.95359019231,1.966194,1166314
5/31/1985,1.96619309904,1.97879690096,1.95358929712,1.972495,1533267
6/3/1985,1.95989271753,1.97249652922,1.93468509416,1.940987,1106808
6/4/1985,1.92838188571,2.00400470476,1.92838188571,1.985099,11754388
6/5/1985,1.99770482822,2.06072390798,1.99140292025,2.054422,5246426
6/6/1985,2.0544210948,2.060723,2.02921347401,2.060723,2842394
6/7/1985,2.05442236364,2.09223381818,2.05442236364,2.07963,1943855
6/10/1985,2.07962981707,2.07962981707,2.067026,2.067026,1440039
6/11/1985,2.0733268104,2.0733268104,2.0544210948,2.060723,1783190
6/12/1985,2.06072390798,2.06702581595,2.04812009202,2.054422,1739552
6/13/1985,2.06702581595,2.0796296319,2.04812009202,2.054422,4161438
6/14/1985,2.07332647904,2.11113790419,2.06702457485,2.104836,1473760
6/17/1985,2.09853527679,2.117441,2.09223336905,2.117441,900520
6/18/1985,2.10483580723,2.13004342169,2.08593009639,2.092232,1727652
6/19/1985,2.09853527679,2.13004481548,2.07962955357,2.117441,3895645
6/20/1985,2.1048363787,2.130044,2.1048363787,2.130044,599025
6/21/1985,2.11744028319,2.136346,2.11744028319,2.136346,2003362
6/24/1985,2.123742,2.13004390504,2.10483628487,2.123742,3314473
6/25/1985,2.11744172973,2.1615550991,2.09223409009,2.098536,3887710
6/26/1985,2.10483718452,2.13004481548,2.09223336905,2.117441,1676079
6/27/1985,2.11743980838,2.13634552096,2.104836,2.104836,1606657
6/28/1985,2.11744090746,2.12374281493,2.09853518507,2.111139,1602689
7/1/1985,2.11113828402,2.13634590533,2.09853447337,2.130044,1204000
7/2/1985,2.12374228235,2.142648,2.11744037647,2.142648,1660212
7/3/1985,2.14264757225,2.19306280925,2.13004376301,2.180459,2634124
7/5/1985,2.18045809798,2.18676,2.17415619597,2.18676,1100858
7/8/1985,2.17415619597,2.18676,2.17415619597,2.18676,1705834
7/9/1985,2.1867608087,2.1867608087,2.14894938261,2.174157,1961708
7/10/1985,2.167856,2.18045981395,2.15525218605,2.167856,5575693
7/11/1985,2.14894938261,2.174157,2.14894938261,2.174157,2646025
7/12/1985,2.18676019484,2.199364,2.17415638968,2.199364,1410288
7/15/1985,2.20566590258,2.21826970774,2.19306209742,2.199364,1757405
7/16/1985,2.1993632983,2.23087280114,2.18675949716,2.218269,1628476
7/17/1985,2.26868528926,2.287591,2.25608148209,2.287591,6690438
7/18/1985,2.28759166216,2.33800690541,2.26868594595,2.331705,4700959
7/19/1985,2.31910076596,2.38211980851,2.3127988617,2.369516,3247034
7/22/1985,2.35691252575,2.36321443089,2.30649728455,2.325403,1065154
7/23/1985,2.33800593056,2.34430783333,2.25608119444,2.268685,2334612
7/24/1985,2.28128923164,2.28128923164,2.21827019209,2.230874,1017549
7/25/1985,2.23087419101,2.243478,2.21827038202,2.243478,1326979
7/26/1985,2.23717702186,2.3127999071,2.23717702186,2.306498,2485358
7/29/1985,2.31279841828,2.31279841828,2.25608129086,2.274987,2300892
7/30/1985,2.26868509695,2.28128890305,2.25608129086,2.274987,896554
7/31/1985,2.27498719284,2.29389290358,2.26868528926,2.287591,537535
8/1/1985,2.28759290884,2.29389481768,2.26868718232,2.281291,924323
8/2/1985,2.28759109615,2.31279871154,2.27498728846,2.293893,2344529
8/5/1985,2.29389481768,2.29389481768,2.27498909116,2.281291,864817
8/6/1985,2.238055,2.30163610795,2.22533877841,2.238055,6668647
8/7/1985,2.238055,2.25077122159,2.19990633523,2.238055,2958819
8/8/1985,2.25077187363,2.314353,2.23805564835,2.314353,3243887
8/9/1985,2.30163510803,2.32070943213,2.28256078393,2.295277,1783156
8/12/1985,2.28256089167,2.30163521667,2.28256089167,2.288919,1582624
8/13/1985,2.295277,2.3143513241,2.28891889197,2.295277,1443039
8/14/1985,2.28891977901,2.31435222099,2.28891977901,2.301636,743145
8/15/1985,2.30799399153,2.30799399153,2.250771,2.250771,2021040
8/16/1985,2.23805353314,2.2507697464,2.18718868012,2.206263,1667162
8/19/1985,2.20626378223,2.23169621777,2.20626378223,2.21898,1085228
8/20/1985,2.23169656056,2.26984521972,2.21898034085,2.257129,947608
8/21/1985,2.25076978652,2.28891842697,2.21897925281,2.263486,3070882
8/22/1985,2.27620366477,2.27620366477,2.2316968892,2.238055,2502708
8/23/1985,2.22533888889,2.26348755556,2.21262266667,2.231697,1126513
8/26/1985,2.2316968892,2.25712933239,2.2316968892,2.238055,837512
8/27/1985,2.23169546629,2.263486,2.23169546629,2.263486,375504
8/28/1985,2.26348744318,2.26984555398,2.22533877841,2.238055,1102921
8/29/1985,2.23805477966,2.25712911017,2.23169666949,2.250771,872900
8/30/1985,2.250771,2.25712911017,2.23169666949,2.250771,1812645
9/3/1985,2.25712998626,2.314353,2.24441376099,2.314353,943676
9/4/1985,2.31435211019,2.33342644077,2.28891966942,2.307994,912220
9/5/1985,2.31435176471,2.31435176471,2.26348689076,2.269845,1189425
9/6/1985,2.26348710986,2.27620332958,2.23169656056,2.257129,998724
9/9/1985,2.26348744318,2.26348744318,2.238055,2.238055,349946
9/10/1985,2.22533877841,2.2444131108,2.22533877841,2.238055,670403
9/11/1985,2.23805477101,2.23805477101,2.18718988986,2.193548,3145588
9/12/1985,2.18719,2.21262244186,2.17447377907,2.18719,1468596
9/13/1985,2.18718868012,2.21262110663,2.18718868012,2.206263,1368331
9/16/1985,2.21897956941,2.25077010765,2.19990524646,2.244412,623220
9/17/1985,2.24441333148,2.28892011142,2.24441333148,2.282562,2160625
9/18/1985,2.26984566667,2.29527811111,2.231697,2.231697,1049840
9/19/1985,2.24441322222,2.24441322222,2.21898077778,2.231697,1395854
9/20/1985,2.21897989143,2.25077043429,2.20626367429,2.225338,1448937
9/23/1985,2.25077155307,2.276204,2.25077155307,2.276204,1189425
9/24/1985,2.27620388858,2.30163633426,2.26984577716,2.282562,1472528
9/25/1985,2.25712955432,2.282562,2.25712955432,2.282562,741179
9/26/1985,2.28892022346,2.28892022346,2.25077155307,2.276204,884696
9/30/1985,2.27620278333,2.288919,2.269844675,2.288919,859139
10/1/1985,2.28256232603,2.320711,2.2762042137,2.320711,796226
10/2/1985,2.32706889385,2.35885945251,2.276204,2.276204,2711103
10/3/1985,2.26984577716,2.3143525571,2.26984577716,2.282562,640913
10/4/1985,2.28256121849,2.28256121849,2.25712878151,2.269845,1952231
10/7/1985,2.26348812717,2.26348812717,2.19354888728,2.199907,2085917
10/8/1985,2.21262189112,2.23169621777,2.19990567335,2.21898,623219
10/9/1985,2.2062638908,2.22533821839,2.19990578161,2.212622,5062432
10/10/1985,2.2062638908,2.2189801092,2.2062638908,2.212622,638947
10/11/1985,2.19990556571,2.225338,2.19990556571,2.225338,3418862
10/14/1985,2.22533855932,2.250771,2.21898044915,2.250771,1671094
10/15/1985,2.26348777654,2.276204,2.25077155307,2.276204,1171731
10/16/1985,2.26984533884,2.307994,2.26984533884,2.307994,2732730
10/17/1985,2.29527866209,2.32071111264,2.29527866209,2.314353,1861794
10/18/1985,2.30799365546,2.32070987395,2.26348689076,2.269845,1861795
10/21/1985,2.27620355801,2.33342655249,2.26348733702,2.301636,2488946
10/22/1985,2.30799477534,2.32706911233,2.30163666301,2.320711,1700583
10/23/1985,2.32071022039,2.32071022039,2.27620344904,2.307994,925982
10/24/1985,2.30163521667,2.307993325,2.27620278333,2.288919,949574
10/25/1985,2.27620388858,2.282562,2.24441333148,2.282562,448246
10/28/1985,2.282562,2.28892011142,2.25712955432,2.282562,442348
10/29/1985,2.28256166851,2.301636,2.28256166851,2.301636,522954
10/30/1985,2.28891966942,2.307994,2.28891966942,2.307994,1572794
10/31/1985,2.30163677473,2.314353,2.30163677473,2.314353,1287724
11/1/1985,2.3016353687,2.397007,2.3016353687,2.397007,2372954
11/4/1985,2.403366,2.44151466667,2.38429166667,2.403366,2677682
11/5/1985,2.470881,2.470881,2.38744865455,2.470881,2152192
11/6/1985,2.47088224806,2.52864313178,2.47088224806,2.483718,3704496
11/7/1985,2.48371688832,2.528642,2.47729901523,2.528642,2045070
11/8/1985,2.51580574359,2.51580574359,2.48371638462,2.50297,821923
11/11/1985,2.50297050761,2.528642,2.47729901523,2.528642,1599050
11/12/1985,2.51580687719,2.56714987469,2.51580687719,2.560732,3079290
11/13/1985,2.5671480916,2.5671480916,2.522223,2.522223,1094599
11/14/1985,2.51580637975,2.56073149367,2.49655275949,2.53506,1495822
11/15/1985,2.52864138539,2.59282010076,2.52864138539,2.547895,3108507
11/18/1985,2.55431264516,2.586402,2.52222329032,2.586402,3285746
11/19/1985,2.61849138686,2.637745,2.60565564477,2.637745,2080129
11/20/1985,2.618493,2.63132875,2.60565725,2.618493,707009
11/21/1985,2.618493,2.63132875,2.60565725,2.618493,1628264
11/22/1985,2.60565597487,2.61849171859,2.54789512814,2.554313,911517
11/25/1985,2.59282061845,2.59282061845,2.54147763591,2.573567,1034221
11/26/1985,2.56073136548,2.56714923858,2.49013476142,2.528642,3081238
11/27/1985,2.54147579104,2.59281873632,2.54147579104,2.579983,2847518
11/29/1985,2.56714987469,2.59282137343,2.54789625063,2.560732,2251524
12/2/1985,2.547895,2.55431287154,2.51580564232,2.547895,1151082
12/3/1985,2.55431475253,2.56715050505,2.53506112374,2.541479,1583467
12/4/1985,2.49013488608,2.54147787342,2.47729913924,2.53506,5137994
12/5/1985,2.52864119474,2.54147693684,2.438791,2.438791,3667493
12/6/1985,2.425956624,2.425956624,2.28476338133,2.406703,2983853
12/9/1985,2.39386615445,2.49655210209,2.39386615445,2.451627,2013907
12/10/1985,2.43879212598,2.47729937008,2.43879212598,2.44521,997214
12/11/1985,2.43879138381,2.46446287206,2.43879138381,2.458045,1338060
12/12/1985,2.458045,2.49013436031,2.42595563969,2.458045,4703661
12/13/1985,2.45804479849,2.56073074307,2.45804479849,2.547895,1523090
12/16/1985,2.54147825616,2.61207487438,2.522224633,2.605657,3009173
12/17/1985,2.612076,2.612076,2.54147935135,2.612076,2870886
12/18/1985,2.59923912562,2.61849274877,2.57998550246,2.605657,2403443
12/19/1985,2.586402,2.61207348387,2.57998412903,2.586402,1663324
12/20/1985,2.586403625,2.618493,2.56715,2.618493,1935999
12/23/1985,2.59282236855,2.61849387715,2.57998661425,2.612076,1466606
12/24/1985,2.59281957252,2.59281957252,2.50296938931,2.522223,1770447
12/26/1985,2.51580486957,2.52222273913,2.50296913043,2.509387,422648
12/27/1985,2.49655386616,2.541479,2.49655386616,2.541479,1279628
12/30/1985,2.54147763591,2.573567,2.52864189027,2.573567,1018639
12/31/1985,2.57998575,2.618493,2.56715,2.618493,1914574
1/2/1986,2.61849262222,2.61849262222,2.58640325185,2.599239,1316635
1/3/1986,2.59281987097,2.6056556129,2.5671483871,2.586402,1583469
1/6/1986,2.58640413384,2.58640413384,2.52222537121,2.541479,1040063
1/7/1986,2.55431425,2.560732125,2.47729975,2.515807,1441287
1/8/1986,2.52864140437,2.53505927596,2.33610525683,2.348941,3351967
1/9/1986,2.31043560322,2.393868,2.31043560322,2.393868,2835828
1/10/1986,2.38744874595,2.40028449189,2.36819512703,2.374613,1824981
1/13/1986,2.374613,2.40028449189,2.36819512703,2.374613,1676957
1/14/1986,2.37461287263,2.38103074526,2.34894138211,2.368195,3696707
1/15/1986,2.36177726984,2.425956,2.34894152381,2.425956,3355862
1/16/1986,2.43237351175,2.47729861619,2.41311989556,2.458045,856981
1/17/1986,2.44520950909,2.49013461818,2.43879163636,2.470881,1262100
1/20/1986,2.45804487173,2.45804487173,2.41953764136,2.451627,1813295
1/21/1986,2.4452097467,2.46446336675,2.41312037995,2.432374,1801609
1/22/1986,2.45162773656,2.46446348387,2.387449,2.387449,3211733
1/23/1986,2.37461436997,2.41312163003,2.3681964933,2.393868,1456868
1/24/1986,2.38744913386,2.44521,2.38744913386,2.44521,2214518
1/27/1986,2.42595551309,2.45804487173,2.41953764136,2.451627,1059541
1/28/1986,2.46446362205,2.46446362205,2.43879212598,2.44521,1170558
1/29/1986,2.4580443886,2.5158052228,2.44520864767,2.477298,2064547
1/30/1986,2.47088137887,2.50938862113,2.46446350515,2.490135,2146349
1/31/1986,2.50938725954,2.53505874046,2.49655151908,2.522223,3250688
2/3/1986,2.50938777078,2.55431287154,2.50938777078,2.547895,1528933
2/4/1986,2.56714987469,2.57998562406,2.55431412531,2.560732,3710340
2/5/1986,2.56714950495,2.59923887376,2.56073163119,2.592821,4750405
2/6/1986,2.60565564477,2.65058074209,2.59923777372,2.637745,4242060
2/7/1986,2.63774588756,2.682671,2.61207439474,2.682671,2366438
2/10/1986,2.753267,2.76610274359,2.68908828205,2.753267,2789086
2/11/1986,2.847226,2.85369696818,2.75016147727,2.847226,4176345
2/12/1986,2.83428380556,2.86016767593,2.795458,2.795458,3529224
2/13/1986,2.78251631818,2.847226,2.76957438182,2.847226,2795176
2/14/1986,2.86016713453,2.886051,2.78898650448,2.886051,2414631
2/18/1986,2.89899424561,2.9637039386,2.88605230702,2.950762,2497693
2/19/1986,2.9637040305,3.04135566449,2.9507620915,2.970175,2540191
2/20/1986,2.97017396725,2.99605783624,2.9507610655,2.963703,5603876
2/21/1986,2.96370125591,3.02841089032,2.95723029247,3.008998,2856993
2/24/1986,2.98958617131,3.02841196574,2.96370230835,3.021941,1614905
2/25/1986,3.02841179221,3.04135372294,2.96370213853,2.989586,4197596
2/26/1986,3.00252906438,3.02194196781,2.98958712876,3.015471,1767509
2/27/1986,3.02841203412,3.05429589765,3.00252817058,3.034883,1118457
2/28/1986,3.10606536585,3.183717,3.09312342683,3.183717,2934258
3/3/1986,3.1837165283,3.1837165283,3.07371006289,3.086652,1742397
3/4/1986,3.0866521556,3.1837166888,3.04135537344,3.119007,3202766
3/5/1986,3.131948,3.131948,3.09312219835,3.131948,1357988
3/6/1986,3.14489078278,3.33254887476,3.1319488454,3.306665,4296111
3/7/1986,3.30666585178,3.30666585178,3.24842711858,3.274311,2905282
3/10/1986,3.27431063563,3.30019451417,3.196659,3.196659,1033461
3/11/1986,3.1901873802,3.28078093663,3.1901873802,3.267839,1792621
3/12/1986,3.26136733074,3.37784473541,3.26136733074,3.326077,2329636
3/13/1986,3.33902105792,3.36490494208,3.28078231853,3.351963,1535704
3/14/1986,3.33902,3.36490387597,3.11900705426,3.33902,4377242
3/17/1986,3.30019403131,3.33901984344,3.22254240705,3.306665,1850573
3/18/1986,3.30019396857,3.30666493713,3.23548428291,3.293723,1170613
3/19/1986,3.28078197036,3.30019488142,3.23548517787,3.274311,1670924
3/20/1986,3.27431031008,3.33902,3.26136837209,3.33902,2675410
3/21/1986,3.3649040613,3.40372987739,3.33902018391,3.377846,3229809
3/24/1986,3.40372896762,3.42314187048,3.3649031619,3.397258,3762961
3/25/1986,3.39078885549,3.39078885549,3.28725331792,3.358434,1655470
3/26/1986,3.35843287573,3.35843287573,3.31960706214,3.332549,2182826
3/27/1986,3.35196083431,3.35843180117,3.31313503314,3.319606,1638085
3/31/1986,3.34549,3.35843193424,3.32607709865,3.34549,1406281
4/1/1986,3.35843180117,3.35843180117,3.319606,3.319606,1495139
4/2/1986,3.32607803107,3.332549,3.30019415534,3.332549,2924600
4/3/1986,3.33254783333,3.34548976667,3.28725106667,3.300193,948467
4/4/1986,3.28725023045,3.35195988066,3.144889,3.144889,1978066
4/7/1986,3.14489112245,3.170775,3.12547821429,3.170775,1354124
4/8/1986,3.17724516129,3.26136774194,3.16430322581,3.2096,1215042
4/9/1986,3.23548463115,3.26783947746,3.15136203074,3.157833,2215664
4/10/1986,3.17077286008,3.17077286008,3.05429548971,3.144889,2509285
4/11/1986,3.13842009221,3.17077493852,3.12547815369,3.157833,1106866
4/14/1986,3.17077493852,3.17724590779,3.11900718443,3.157833,1763646
4/15/1986,3.17077496933,3.20312981595,3.15783303067,3.164304,650984
4/16/1986,3.19665715909,3.42961193182,3.19665715909,3.41667,2594280
4/17/1986,3.390787625,3.41020053125,3.287252125,3.313136,1935567
4/18/1986,3.326077,3.33254796693,3.16430282685,3.326077,2482241
4/21/1986,3.35196096712,3.35843193424,3.31313516441,3.34549,2072719
4/22/1986,3.40372806818,3.42961193182,3.36490227273,3.41667,2943919
4/23/1986,3.41667,3.42961193182,3.39078613636,3.41667,2283275
4/24/1986,3.39078703238,3.42314187048,3.39078703238,3.397258,1576271
4/25/1986,3.39726005693,3.410202,3.37784714231,3.410202,1340602
4/28/1986,3.410202,3.42314394307,3.37784714231,3.410202,1356056
4/29/1986,3.3972597973,3.3972597973,3.31960814479,3.351963,1091412
4/30/1986,3.38431389038,3.42961063462,3.35195907308,3.364901,2544057
5/1/1986,3.35196325617,3.41667297154,3.32607937002,3.410202,1922045
5/2/1986,3.397258,3.42314187048,3.3649031619,3.397258,1721149
5/5/1986,3.38431709125,3.41667193916,3.36490418251,3.40373,1041188
5/6/1986,3.376611,3.41572232432,3.376611,3.376611,433378
5/7/1986,3.39616766414,3.44179755598,3.3766119962,3.435279,1415190
5/8/1986,3.45483535922,3.45483535922,3.35053844272,3.357057,851415
5/9/1986,3.34401933728,3.34401933728,3.304908,3.304908,954966
5/12/1986,3.31142701403,3.31794557114,3.25276,3.25276,2448778
5/13/1986,3.25275832252,3.25275832252,3.19409133874,3.213647,1560929
5/14/1986,3.22016734426,3.22668590164,3.181056,3.181056,1940613
5/15/1986,3.18757309833,3.18757309833,3.10283189121,3.115869,1457378
5/16/1986,3.10283376667,3.128908,3.0506853,3.128908,2544657
5/19/1986,3.14194421766,3.18105555647,3.13542566119,3.174537,1768029
5/20/1986,3.17453753939,3.23320455758,3.15498186667,3.226686,1915684
5/21/1986,3.233204,3.25275966935,3.18757410484,3.233204,2439190
5/22/1986,3.2332024664,3.298388,3.22668391304,3.298388,1116045
5/23/1986,3.30490766667,3.35053755556,3.29187055556,3.344019,1279041
5/27/1986,3.330982,3.34401911155,3.31794488845,3.330982,531175
5/28/1986,3.33098110806,3.33749966208,3.28535122986,3.317944,1480389
5/29/1986,3.30490844291,3.311427,3.25927854331,3.311427,2611774
5/30/1986,3.28535244356,3.29838955644,3.26579677426,3.291871,2464119
6/2/1986,3.29838833792,3.317944,3.28535122986,3.317944,3024060
6/3/1986,3.30490689194,3.317944,3.29838833792,3.317944,1081528
6/4/1986,3.33098112162,3.38312955405,3.32446256757,3.376611,1863910
6/5/1986,3.37661044701,3.383129,3.34401768208,3.383129,1929109
6/6/1986,3.37009356213,3.37661211834,3.29187088757,3.304908,1593527
6/9/1986,3.29187147541,3.29187147541,3.16150032787,3.181056,1215759
6/10/1986,3.17453732857,3.22016722857,3.16801877143,3.194093,1861991
6/11/1986,3.20061033603,3.22668455466,3.18105467206,3.220166,1662561
6/12/1986,3.20712889861,3.278833,3.18757323459,3.278833,857168
6/13/1986,3.27231629961,3.350539,3.27231629961,3.350539,1438201
6/16/1986,3.33750077519,3.363575,3.31142655039,3.363575,1735430
6/17/1986,3.36357432941,3.36357432941,3.27883311569,3.324463,1050846
6/18/1986,3.32446366864,3.32446366864,3.26579666272,3.304908,793887
6/19/1986,3.30490800602,3.31142656225,3.20712966265,3.246241,1179325
6/20/1986,3.24624176892,3.28535311554,3.23972321116,3.272316,1480388
6/23/1986,3.28535089328,3.31142510672,3.24623957312,3.298388,2113198
6/24/1986,3.31142655039,3.3831306686,3.29187088178,3.363575,2372074
6/25/1986,3.38313275908,3.409207,3.37009563862,3.409207,2492881
6/26/1986,3.48090877338,3.624317,3.42876032734,3.624317,2893662
6/27/1986,3.61128123273,3.61128123273,3.55913276727,3.585207,1371085
6/30/1986,3.57216967339,3.60476246239,3.5460954422,3.552614,949213
7/1/1986,3.54609588278,3.56565155861,3.53305876557,3.559133,3275263
7/2/1986,3.55913021402,3.55913021402,3.52001889299,3.533056,3434427
7/3/1986,3.53957521892,3.53957521892,3.46787111688,3.513501,2420014
7/7/1986,3.52653959195,3.52653959195,3.402687,3.402687,1445872
7/8/1986,3.33750122835,3.33750122835,3.23972287205,3.311427,2736418
7/9/1986,3.31142655621,3.32446366864,3.26579666272,3.304908,2283864
7/10/1986,3.30490878884,3.30490878884,3.21364898008,3.272316,1668313
7/11/1986,3.285354,3.285354,3.24624264286,3.285354,3210065
7/14/1986,3.27231275654,3.27231275654,3.22016434608,3.23972,1501483
7/15/1986,3.2201666722,3.23320378423,3.12890688797,3.141944,2824628
7/16/1986,3.18105691476,3.20061259252,3.135427,3.135427,1938695
7/17/1986,3.12890699387,3.20061111247,3.12890699387,3.187574,2703819
7/18/1986,3.23320388755,3.2983894498,3.1940925502,3.246241,1938696
7/21/1986,3.23320310931,3.23320310931,3.19409178138,3.220166,1194666
7/22/1986,3.20713128571,3.285354,3.20713128571,3.285354,1773781
7/23/1986,3.27883311569,3.3309815549,3.25927745098,3.324463,3461273
7/24/1986,3.32446366279,3.363575,3.31142655039,3.363575,1323145
7/25/1986,3.37009244595,3.376611,3.32446256757,3.376611,1073857
7/28/1986,3.370094486,3.376613044,3.259279,3.259279,1390261
7/29/1986,3.26579666867,3.26579666867,3.23972244378,3.246241,1842816
7/30/1986,3.24623976876,3.25275832252,3.19409133874,3.213647,1233018
7/31/1986,3.22668410751,3.22668410751,3.19409133874,3.213647,1689408
8/1/1986,3.20712933333,3.20712933333,3.168018,3.168018,2642456
8/4/1986,3.15498046123,3.278833,3.12890624254,3.278833,1488059
8/5/1986,3.244939,3.31062602429,3.244939,3.244939,1809718
8/6/1986,3.20552680992,3.2120955124,3.16611459504,3.179252,1267373
8/7/1986,3.192390225,3.20552763333,3.14640929583,3.152978,1828747
8/8/1986,3.17268370332,3.17268370332,3.11356537344,3.166115,1467184
8/11/1986,3.179251666,3.304057,3.16611426243,3.304057,3499549
8/12/1986,3.29092077515,3.35660781657,3.27121466272,3.330333,2264525
8/13/1986,3.33033302863,3.46827581679,3.33033302863,3.442001,5259789
8/14/1986,3.461707,3.48141311195,3.44856959203,3.461707,2810676
8/15/1986,3.49455111531,3.49455111531,3.42886406427,3.474845,2730751
8/18/1986,3.46827540684,3.46827540684,3.41572577947,3.455138,2900115
8/19/1986,3.44200170554,3.44857041109,3.435433,3.435433,3939132
8/20/1986,3.44856897196,3.514256,3.44200026916,3.514256,3143695
8/21/1986,3.52082518519,3.57337481481,3.50768777778,3.5471,4603267
8/22/1986,3.56023722015,3.56023722015,3.50768759328,3.520825,1853486
8/25/1986,3.50768710734,3.51425580979,3.48141229755,3.487981,1394872
8/26/1986,3.48798224723,3.57337540959,3.48798224723,3.560238,2751684
8/27/1986,3.55366650183,3.58651,3.5470978022,3.58651,2334937
8/28/1986,3.58651306329,3.64563141049,3.5733756528,3.632494,2382509
8/29/1986,3.61278835125,3.69818153047,3.61278835125,3.665338,9105674
9/2/1986,3.66533727675,3.66533727675,3.5536692952,3.560238,2378703
9/3/1986,3.56023697101,3.625924,3.52082475362,3.625924,3878239
9/4/1986,3.63905950791,3.78357089631,3.63249080844,3.73759,6837350
9/5/1986,3.73102518198,3.7507313009,3.62592588108,3.645632,3899169
9/8/1986,3.61278696429,3.69161140714,3.57994344643,3.678474,3206492
9/9/1986,3.69161061733,3.72445412816,3.62592359567,3.639061,4521441
9/10/1986,3.63906196099,3.704749,3.59964973759,3.704749,3472907
9/11/1986,3.70474950554,3.70474950554,3.54710059041,3.560238,4888711
9/12/1986,3.56680430337,3.57337300375,3.44199899625,3.507686,5539528
9/15/1986,3.56023740741,3.56680611111,3.52739388889,3.5471,4426291
9/16/1986,3.54710029575,3.5668064085,3.52082547874,3.553669,3094217
9/17/1986,3.55366690262,3.56680430337,3.507686,3.507686,3010488
9/18/1986,3.5076872972,3.53396210841,3.49454989159,3.514256,2049491
9/19/1986,3.51425618738,3.540531,3.48141267161,3.540531,2544261
9/22/1986,3.52739359369,3.54709970315,3.50768748423,3.540531,987637
9/23/1986,3.54709908592,3.59308,3.54053038391,3.59308,3408207
9/24/1986,3.57337617518,3.599651,3.52739523175,3.599651,1952439
9/25/1986,3.5996494403,3.5996494403,3.49455018657,3.520825,2810676
9/26/1986,3.50768640226,3.51425510338,3.46827419549,3.494549,1084689
9/29/1986,3.48141162109,3.48141162109,3.33690019531,3.363175,3604213
9/30/1986,3.35003888889,3.38945111111,3.35003888889,3.369745,2213145
10/1/1986,3.38288347115,3.44200182308,3.36974605962,3.415727,2947688
10/2/1986,3.4354318131,3.44856921965,3.409157,3.409157,1543303
10/3/1986,3.39602,3.44200092843,3.36974518375,3.39602,989540
10/6/1986,3.38288329457,3.42886423256,3.37631458915,3.389452,959093
10/7/1986,3.39602,3.42229481625,3.38288259188,3.39602,1288305
10/8/1986,3.40915747901,3.4551384084,3.39602007061,3.442001,2629894
10/9/1986,3.455138,3.48141281369,3.455138,3.455138,3474810
10/10/1986,3.4485670977,3.4485670977,3.42229230077,3.428861,1107525
10/13/1986,3.4222951139,3.43543252317,3.38945159073,3.402589,256899
10/14/1986,3.41572577947,3.46827540684,3.41572577947,3.455138,1560429
10/15/1986,3.560238,3.5668067048,3.44857001845,3.560238,1130359
10/16/1986,3.57337617518,3.61278841241,3.56023876277,3.599651,3590889
10/17/1986,3.61278729583,3.619356,3.59964988748,3.619356,1539496
10/20/1986,3.60621751103,3.60621751103,3.573374,3.573374,3535706
10/21/1986,3.57337511275,3.57337511275,3.52082547874,3.553669,2538552
10/22/1986,3.56680746898,3.6062197062,3.55367005657,3.599651,2079937
10/23/1986,3.6127865942,3.6456301087,3.59964918841,3.625924,1899157
10/24/1986,3.63906252459,3.65219993443,3.606219,3.606219,1569944
10/27/1986,3.61278841241,3.61935711861,3.57994488139,3.599651,1706957
10/28/1986,3.61278729583,3.63906211252,3.57337507078,3.619356,2978136
10/29/1986,3.62592506619,3.671906,3.62592506619,3.671906,3189365
10/30/1986,3.67847411131,3.69818022262,3.63906188869,3.658768,5290237
10/31/1986,3.67190623146,3.67190623146,3.59308176854,3.632494,2274040
11/3/1986,3.63906177857,3.678474,3.62592437143,3.678474,4026669
11/4/1986,3.670801,3.68402911171,3.65757288829,3.670801,4295775
11/5/1986,3.67080154529,3.74355617052,3.66418748845,3.723714,3929131
11/6/1986,3.71048781915,3.74355812057,3.6906456383,3.73033,2039216
11/7/1986,3.71709878092,3.76339716431,3.69725661661,3.743555,2564614
11/10/1986,3.73032727728,3.73032727728,3.67741483363,3.697257,1925822
11/11/1986,3.6840287242,3.72371305516,3.66418655872,3.717099,3647535
11/12/1986,3.71710123656,3.7237152957,3.65096064516,3.690645,1833216
11/13/1986,3.69725716727,3.71048527878,3.677415,3.677415,3915902
11/14/1986,3.69725842004,3.78324117399,3.69064436204,3.763399,4259865
11/17/1986,3.73694228571,3.7501704,3.703872,3.703872,2566503
11/18/1986,3.71709871038,3.72371276503,3.631116,3.631116,2763055
11/19/1986,3.63773142857,3.703872,3.63111737143,3.703872,2054336
11/20/1986,3.71709916637,3.72371322182,3.66418672272,3.697257,2507916
11/21/1986,3.69725683452,3.73694116548,3.6840287242,3.717099,5314440
11/24/1986,3.71710070899,3.7700131746,3.70387259259,3.750171,3496340
11/25/1986,3.75678333793,3.86260822069,3.75678333793,3.836152,4059536
11/26/1986,3.83615249576,3.91552116808,3.82953843973,3.895679,2120484
11/28/1986,3.8956797138,3.92875,3.88245159933,3.92875,2368062
12/1/1986,3.92875017259,3.92875017259,3.82953930964,3.908908,2351053
12/2/1986,3.9419796412,4.0015061794,3.90890934219,3.981664,4586819
12/3/1986,3.98166439542,4.07426124183,3.98166439542,4.047805,4817388
12/4/1986,4.06103146205,4.10732986634,4.008119,4.008119,4870308
12/5/1986,3.98166116528,4.05441577129,3.90229250417,3.961819,2704467
12/8/1986,3.95520494491,3.99488927546,3.90229250417,3.961819,2231989
12/9/1986,3.99488978305,4.03457411864,3.902293,3.902293,2069456
12/10/1986,3.90229453177,3.96843511706,3.90229453177,3.955207,2541933
12/11/1986,3.95520432432,4.02134486486,3.90229189189,3.91552,4188051
12/12/1986,3.91552223129,3.92875034694,3.85599571088,3.889066,1462793
12/15/1986,3.87583728399,3.87583728399,3.80969671601,3.842767,2008978
12/16/1986,3.88906488814,3.902293,3.83615244068,3.902293,2846211
12/17/1986,3.91552188552,3.92875,3.88906565657,3.92875,1693363
12/18/1986,3.91552133788,3.98166190102,3.84938077474,3.875837,2617531
12/19/1986,3.88906728,3.968436,3.86261104,3.968436,4193717
12/22/1986,3.91552111186,3.92874922373,3.84938055254,3.902293,2940706
12/23/1986,3.90229305603,3.90229305603,3.86260871986,3.895679,2487127
12/24/1986,3.89568005782,3.89568005782,3.87583788435,3.889066,2530594
12/26/1986,3.89568011584,3.90229417376,3.882452,3.882452,523506
12/29/1986,3.88245105631,3.90229322526,3.86260888737,3.875837,1761400
12/30/1986,3.86922441176,3.87583847059,3.822926,3.822926,2145051
12/31/1986,3.82953976672,3.87583817496,3.8229257084,3.855996,2222538
1/2/1987,3.84276616946,3.941977,3.82953805872,3.941977,1946612
1/5/1987,3.94859067164,3.99488905473,3.94859067164,3.988275,3819517
1/6/1987,4.00150310945,4.07425771144,3.97504689055,3.988275,6966225
1/7/1987,3.95520815359,4.047805,3.95520815359,4.047805,3354595
1/8/1987,4.07425953846,4.14040011538,4.04780330769,4.127172,3435863
1/9/1987,4.14039888854,4.19992539013,4.11394266561,4.153627,2150722
1/12/1987,4.14039770769,4.31236310769,4.1271696,4.299135,3320580
1/13/1987,4.29913543614,4.29913543614,4.23960894548,4.246223,2428540
1/14/1987,4.23299671318,4.27268105736,4.18669831163,4.266067,3519019
1/15/1987,4.2726808858,4.3123652284,4.2594527716,4.285909,4040636
1/16/1987,4.299135,4.36527553846,4.28590689231,4.299135,3874325
1/19/1987,4.24622465741,4.2991371142,4.20654031481,4.285909,2564613
1/20/1987,4.29913806306,4.43141923423,4.28590994595,4.404963,3490670
1/21/1987,4.40496250312,4.40496250312,4.20654076875,4.232997,3415074
1/22/1987,4.25945112727,4.38511816364,4.25945112727,4.365276,2175292
1/23/1987,4.39173488288,4.60338475676,4.29913806306,4.404963,6257504
1/26/1987,4.37850634756,4.37850634756,4.31236576829,4.338822,2281126
1/27/1987,4.35205146027,4.47110453973,4.35205146027,4.411578,2203638
1/28/1987,4.41818845428,4.52401332743,4.40496034513,4.484329,2328375
1/29/1987,4.53724394178,4.55047205822,4.51078770888,4.543858,2315144
1/30/1987,4.5570855977,4.61661211494,4.44464662069,4.603384,1963620
2/2/1987,4.62322549153,4.70920822599,4.59015520904,4.682752,3124028
2/3/1987,4.68936616997,4.72243645326,4.62983966006,4.669524,4609500
2/4/1987,4.6893660565,4.6893660565,4.62983954802,4.682752,2124263
2/5/1987,4.68275054441,4.6959786533,4.60338189112,4.61661,3103240
2/6/1987,4.63645394302,4.66952422792,4.6099977151,4.643068,1576188
2/9/1987,4.64306834483,4.64306834483,4.56369965517,4.603384,1833216
2/10/1987,4.472405,4.51899255208,4.392540625,4.472405,3076465
2/11/1987,4.47240489796,4.56558,4.4391280758,4.56558,1171986
2/12/1987,4.56558065385,4.61882357692,4.47240553846,4.499027,2227526
2/13/1987,4.52564943231,4.57889236681,4.49902796507,4.572237,1872548
2/17/1987,4.47240659649,4.552271,4.45909586257,4.552271,2867986
2/18/1987,4.70534227507,4.71199763897,4.59885645272,4.645444,2931845
2/19/1987,4.65875472779,4.65875472779,4.6387886361,4.645444,2317679
2/20/1987,4.63213446243,4.64544519364,4.59220226879,4.605513,1179499
2/23/1987,4.57889358003,4.60551505433,4.47240768282,4.532306,3624893
2/24/1987,4.505683,4.51899373264,4.46575080207,4.505683,3521594
2/25/1987,4.49237109375,4.50568182292,4.45909427083,4.472405,2631335
2/26/1987,4.47240616839,4.51233836632,4.45909543575,4.505683,1632141
2/27/1987,4.49237336795,4.49902873591,4.45909652819,4.485718,7366234
3/2/1987,4.47240481416,4.512337,4.45909408555,4.512337,1307216
3/3/1987,4.49902952353,4.525651,4.47240804706,4.525651,1237722
3/4/1987,4.53895845723,4.55892455015,4.49902627139,4.512337,2578746
3/5/1987,4.51233773077,4.53230382692,4.48571626923,4.499027,2890524
3/6/1987,4.51899526285,4.55227210573,4.51233989427,4.532306,4269109
3/9/1987,4.56557936494,4.67872054454,4.52564718391,4.632133,1900722
3/10/1987,4.65875472779,4.67206545559,4.61216718052,4.645444,1384221
3/11/1987,4.69868755365,4.72530901288,4.63878927039,4.6521,1692243
3/12/1987,4.678724,4.68537936842,4.64544715789,4.678724,1155082
3/13/1987,4.632133,4.79186172414,4.57889009195,4.632133,1226454
3/16/1987,4.64544437318,4.64544437318,4.52564781341,4.56558,1195464
3/17/1987,4.5389602577,4.79186420168,4.52564952381,4.751932,1458409
3/18/1987,4.77855326667,4.81848546667,4.73862106667,4.791864,1356987
3/19/1987,4.79186386921,4.89834973297,4.76524240327,4.885039,1603029
3/20/1987,4.89835018947,5.058079,4.84510725263,5.058079,2837935
3/23/1987,5.05807918367,5.24442946939,5.03145771429,5.217808,3986444
3/24/1987,5.21780583333,5.29767020833,5.0713878125,5.11132,2332704
3/25/1987,5.19118593264,5.21780739896,5.05807860104,5.137943,2813518
3/26/1987,5.1645617261,5.28435826098,5.1379402739,5.151251,1069626
3/27/1987,5.0314535122,5.05807495935,4.81848193496,4.911657,1537294
3/30/1987,4.57889097465,4.79186264789,4.55226951549,4.725309,3826800
3/31/1987,4.73862019263,4.76524165439,4.64544507649,4.698688,1923260
4/1/1987,4.72530987569,4.92497085635,4.68537767956,4.818485,2344912
4/2/1987,4.84510607609,4.91165973098,4.83179534511,4.898349,1845315
4/3/1987,4.81848476064,5.004835,4.72530964096,5.004835,1453714
4/6/1987,5.03145687273,5.1645641974,5.03145687273,5.124632,1637776
4/7/1987,5.12463036939,5.20449473879,5.044766,5.044766,1310972
4/8/1987,5.018147472,5.031458208,4.738622016,4.991526,1679095
4/9/1987,4.96490070914,4.99152216066,4.805172,4.805172,1008585
4/10/1987,4.76524273389,4.85841787115,4.68537833053,4.751932,1375769
4/13/1987,4.77855177083,4.77855177083,4.36591916667,4.472405,1955189
4/14/1987,4.39254220183,4.49902807339,4.32598853211,4.35261,3900986
4/15/1987,4.47240693976,4.49902840964,4.33929959036,4.419164,1927955
4/16/1987,4.49902662209,4.6055124593,4.48571589244,4.578891,1834046
4/20/1987,4.60551229167,4.63213375,4.44578354167,4.472405,1310033
4/21/1987,4.43247439474,4.552271,4.37923145906,4.552271,1437749
4/22/1987,4.55227232927,4.55227232927,4.31267904878,4.365922,2222829
4/23/1987,4.36592141615,4.41916436025,4.21950331988,4.286057,2784406
4/24/1987,4.25943562701,4.27274636334,4.099706791,4.139639,1861279
4/27/1987,4.11301686076,4.23281346835,3.96659878481,4.206192,4904875
4/28/1987,4.23281346835,4.29936713924,4.206192,4.206192,1852827
4/29/1987,4.25943380805,4.36591965325,4.23281234675,4.299366,2700828
4/30/1987,4.36592033634,4.432474,4.31267740541,4.432474,1756101
5/1/1987,4.45909408555,4.55226918584,4.40585117109,4.512337,2536487
5/4/1987,4.48571693093,4.52564912913,4.432474,4.432474,2143946
5/5/1987,4.488206,4.5417965194,4.4346154806,4.488206,3012659
5/6/1987,4.50160421053,4.59538763158,4.48820657895,4.58199,1835212
5/7/1987,4.59538991471,4.62218519118,4.54179936176,4.555197,2159895
5/8/1987,4.59538763158,4.60878526316,4.50160421053,4.58199,1861336
5/11/1987,4.5551943695,4.62218252199,4.541796739,4.568592,3300956
5/12/1987,4.44801383976,4.55519489614,4.43461620772,4.515002,1628086
5/13/1987,4.52839750299,4.52839750299,4.38102361976,4.474807,2112314
5/14/1987,4.50160683636,4.50160683636,4.38102808182,4.421221,1574904
5/15/1987,4.4480166875,4.47481196875,4.27384735938,4.287245,1907052
5/18/1987,4.26044790476,4.2872431746,4.11307392063,4.220255,1987291
5/19/1987,4.20685489769,4.20685489769,4.01928811881,4.059481,2423936
5/20/1987,4.07288080537,4.09967607383,3.91210919463,3.992495,3744131
5/21/1987,4.04608506122,4.07288032653,3.938904,3.938904,2041405
5/22/1987,3.992495,4.05948317114,3.96569973154,3.992495,1443351
5/26/1987,4.07287958842,4.166663,4.0594819582,4.166663,1476940
5/27/1987,4.13986909615,4.23365253846,4.09967619231,4.180062,1567440
5/28/1987,4.20685717152,4.22025480583,4.07288082848,4.139869,1983559
5/29/1987,4.15326536977,4.166663,4.12647010932,4.166663,2549891
6/1/1987,4.16666310828,4.24704889172,4.11307258599,4.206856,2387549
6/2/1987,4.18006450157,4.28724564263,4.13987157367,4.273848,1432154
6/3/1987,4.24705,4.28724290221,4.13986892744,4.24705,2868043
6/4/1987,4.24705028528,4.38102663497,4.24705028528,4.367629,2440729
6/5/1987,4.38102488889,4.42121777778,4.31403674074,4.340832,1919182
6/8/1987,4.36762549689,4.38102312112,4.27384212733,4.314035,1309933
6/9/1987,4.27384385185,4.38102488889,4.26044622222,4.340832,1865068
6/10/1987,4.39442363303,4.42121889908,4.32743546789,4.381026,2730892
6/11/1987,4.38102672948,4.407822,4.32743618845,4.407822,1937841
6/12/1987,4.40782336061,4.421221,4.35423280303,4.421221,2864310
6/15/1987,4.43461412275,4.474807,4.40781887126,4.474807,1651412
6/16/1987,4.47480924786,4.702569,4.44801398291,4.702569,5555085
6/17/1987,4.7159700813,4.98392292683,4.68917479675,4.94373,5820053
6/18/1987,4.95712606771,5.25187410417,4.94372842969,5.144693,5578408
6/19/1987,5.19828105263,5.33225736842,4.95712368421,5.0911,4484934
6/22/1987,5.19828228715,5.318861,5.14469174811,5.318861,4244219
6/23/1987,5.30546346,5.73418778,5.292065825,5.359054,7573164
6/24/1987,5.292065825,5.43943981,5.27866819,5.359054,4392566
6/25/1987,5.33226067876,5.37245359845,5.14469372021,5.171489,4516653
6/26/1987,5.14469245361,5.27866881959,5.11789718041,5.198283,2535895
6/29/1987,5.25187483938,5.35905595855,5.171489,5.171489,3074235
6/30/1987,5.15809074468,5.21168129787,5.0107167234,5.037512,4040824
7/1/1987,4.98391953261,5.03751006522,4.87673846739,4.930329,4123862
7/2/1987,4.94373057534,5.01071879452,4.89014,4.89014,2418335
7/6/1987,4.93032873514,5.14469085405,4.89013583784,4.957124,3648965
7/7/1987,5.02411496114,5.1848866399,5.01071732124,5.171489,4079076
7/8/1987,5.14469298228,5.33225991392,5.11789770633,5.292067,4342183
7/9/1987,5.30546463797,5.49303156962,5.19828353418,5.292067,6957383
7/10/1987,5.30546463797,5.38585046582,5.22507881013,5.292067,2935218
7/13/1987,5.265272,5.27866963868,5.19828380662,5.265272,3020121
7/14/1987,5.26527118299,5.27866881959,5.1848853634,5.198283,1967697
7/15/1987,5.1848866399,5.22507955959,5.11789844041,5.171489,1924779
7/16/1987,5.25187354639,5.25187354639,5.14469245361,5.198283,3350404
7/17/1987,5.21167826098,5.22507589147,5.15808773902,5.184883,2055400
7/20/1987,5.117898,5.19828383246,5.06430744503,5.117898,2975337
7/21/1987,5.09110032432,5.10449795676,4.94372636757,4.957124,3987644
7/22/1987,5.05090669509,5.19828063049,4.95712328165,5.184883,4305798
7/23/1987,5.18488342105,5.18488342105,5.06430473684,5.0911,1504930
7/24/1987,5.13129685146,5.14469449337,5.02411571618,5.050911,1886526
7/27/1987,5.064306,5.14469180952,5.01071546032,5.064306,1090677
7/28/1987,5.07770628382,5.09110392573,4.97052514854,5.050911,1879995
7/29/1987,5.077704,5.10449927177,5.05090872823,5.077704,2617999
7/30/1987,5.09109958656,5.25187115245,5.09109958656,5.184883,4198503
7/31/1987,5.19828228715,5.46623498237,5.17148701763,5.318861,3728270
8/3/1987,5.25187436132,5.39924838677,5.22507908397,5.265272,3628437
8/4/1987,5.186599,5.29437248571,5.13271225714,5.186599,2391126
8/5/1987,5.21354068135,5.37520085751,5.200069,5.200069,3754171
8/6/1987,5.18659691816,5.267427,5.13271019693,5.267427,2514534
8/7/1987,5.240482,5.32131205656,5.22701032391,5.240482,2329888
8/10/1987,5.26742564631,5.30784067684,5.22701061578,5.294369,1201595
8/11/1987,5.32131205656,5.36172708483,5.22701032391,5.240482,3488801
8/12/1987,5.26742632143,5.36172807143,5.22701128571,5.280898,4623588
8/13/1987,5.32131693467,5.42909044221,5.22701511558,5.361732,8259914
8/14/1987,5.37519837563,5.40214172589,5.28089664975,5.30784,3861806
8/17/1987,5.28089868031,5.33478540153,5.24048363939,5.267427,2785472
8/18/1987,5.24048445932,5.26742782415,5.06535258793,5.132711,1775019
8/19/1987,5.09229460574,5.159653,5.01146453264,5.159653,2522885
8/20/1987,5.146181,5.22701106806,5.07882260995,5.146181,3028575
8/21/1987,5.17312595349,5.25395604651,5.11923922481,5.213541,4305327
8/24/1987,5.21353939005,5.22701106806,4.8902191178,5.146181,2261225
8/25/1987,5.14618336842,5.21354178947,5.09229663158,5.11924,4949269
8/26/1987,5.173127,5.21354205469,5.13271194531,5.173127,2540513
8/27/1987,5.18659596649,5.26742603351,5.14618093299,5.227011,2584125
8/28/1987,5.20006843915,5.26742683862,5.092295,5.092295,1842754
8/31/1987,5.14618026735,5.240482,5.09229356298,5.240482,2494121
9/1/1987,5.17312259241,5.41561271392,5.14617924557,5.321311,5981996
9/2/1987,5.33478507692,5.34825675641,5.18659660256,5.253955,4292337
9/3/1987,5.22701080533,5.25395416,4.971048936,5.051879,3608496
9/4/1987,5.10576544293,5.17312382609,4.90369029348,4.957577,2457006
9/8/1987,4.91716404696,4.98452245856,4.79591890608,4.876749,3072184
9/9/1987,4.86327472599,4.89021807627,4.71508629944,4.768973,4103981
9/10/1987,4.80939036338,4.83633372676,4.76897531831,4.782447,4549357
9/11/1987,4.90369236464,4.95757909392,4.78244722376,4.876749,3392300
9/14/1987,4.87674895342,4.93063568219,4.84980558904,4.917164,2590619
9/15/1987,4.9171647905,4.9171647905,4.80939131564,4.822863,2385559
9/16/1987,4.87675011236,4.87675011236,4.76897662921,4.79592,4688537
9/17/1987,4.8363306158,4.944104,4.64772719346,4.944104,5067113
9/18/1987,5.05187804878,5.07882139837,4.90368962602,4.971048,6519233
9/21/1987,4.98452110803,5.01146446537,4.82286096399,4.863276,2737223
9/22/1987,4.90369231781,4.95757904658,4.76897549589,4.917164,2078433
9/23/1987,4.917164,4.98452241096,4.89022063562,4.917164,2872692
9/24/1987,4.90369,4.97104837912,4.87674664835,4.90369,2008844
9/25/1987,4.87674664835,4.91716167582,4.86327497253,4.90369,1317579
9/28/1987,4.930634,4.95757735519,4.90369064481,4.930634,2877332
9/29/1987,4.93063364674,4.957577,4.90369029348,4.957577,1512432
9/30/1987,4.95757909392,4.98452245856,4.83633395304,4.876749,3793141
10/1/1987,4.90368991957,5.0384066756,4.89021824397,5.024935,7088019
10/2/1987,5.02493668011,5.03840836022,5.011465,5.011465,1401087
10/5/1987,4.99799229067,5.051879,4.98452061333,5.051879,1211801
10/6/1987,5.02494006757,5.03841175676,4.97105331081,4.984525,2763202
10/7/1987,4.99799173077,4.99799173077,4.89021832418,4.90369,2261225
10/8/1987,4.93063271866,4.93063271866,4.79591597772,4.836331,2326177
10/9/1987,4.82285970056,4.87674640113,4.74202964972,4.768973,3022081
10/12/1987,4.74203035429,4.74203035429,4.66120029143,4.715087,2861559
10/13/1987,4.76897626257,4.84980636872,4.7285612095,4.822863,3875721
10/14/1987,4.74203035429,4.79591706286,4.66120029143,4.715087,1693367
10/15/1987,4.67467209763,4.70161545266,4.52648364497,4.553427,4586474
10/16/1987,4.539954475,4.5803695,4.28399265,4.310936,4813803
10/19/1987,4.20316204724,4.20316204724,3.34097496063,3.421805,8534574
10/20/1987,3.36791935484,3.61040954839,3.12542916129,3.340976,17169354
10/21/1987,3.58346676761,3.87984371831,3.56999508803,3.825957,11646654
10/22/1987,3.71818313636,3.75859817045,3.4218062197,3.556523,9038406
10/23/1987,3.46221967188,3.58346471875,3.3948613125,3.448748,5006802
10/26/1987,3.28709008403,3.34097680672,3.12542991597,3.20626,3984283
10/27/1987,3.23320372881,3.31403382203,3.07154354237,3.179317,2341021
10/28/1987,2.96376862222,3.12542872889,2.96376862222,3.031127,2376281
10/29/1987,3.1119582766,3.23320340426,3.07154323404,3.165845,2672272
10/30/1987,3.300562,3.36792040816,3.23320359184,3.300562,4656990
11/2/1987,3.36792011278,3.583467,3.36792011278,3.583467,1744400
11/3/1987,3.55652161765,3.664295,3.44874823529,3.664295,3656747
11/4/1987,3.6561420303,3.75128327273,3.57459239394,3.588184,1946054
11/5/1987,3.54740740809,3.73768979779,3.53381580882,3.696915,2617425
11/6/1987,3.77846648485,3.80564969697,3.588184,3.588184,1115578
11/9/1987,3.5881845551,3.5881845551,3.329944,3.329944,3320063
11/10/1987,3.20761841379,3.26198482759,3.153252,3.153252,3000933
11/11/1987,3.15325309388,3.42508525714,3.15325309388,3.329944,2765493
11/12/1987,3.39790116279,3.58818362791,3.39790116279,3.506634,2227477
11/13/1987,3.57459207258,3.6153668871,3.370718,3.370718,1470576
11/16/1987,3.4522664,3.5881824,3.4522664,3.465858,2519938
11/17/1987,3.49304239535,3.506634,3.38430955814,3.506634,1502765
11/18/1987,3.47945036704,3.66973280899,3.47945036704,3.628958,2931037
11/19/1987,3.615368,3.75128409023,3.58818478195,3.615368,2708472
11/20/1987,3.58818334286,3.81924060357,3.56100013571,3.805649,2227478
11/23/1987,3.80565039146,3.819242,3.7512839573,3.819242,2681801
11/24/1987,3.79205797183,3.88719921127,3.79205797183,3.860016,5960480
11/25/1987,3.86001481159,3.86001481159,3.6697323913,3.751282,2848266
11/27/1987,3.72409799257,3.73768959108,3.64254840149,3.65614,1107301
11/30/1987,3.53381742188,3.64255026563,3.39790136719,3.479451,3656668
12/1/1987,3.47945038168,3.61536641221,3.45226717557,3.561,2565922
12/2/1987,3.56099939924,3.60177420152,3.47944979468,3.574591,1035566
12/3/1987,3.54740822892,3.57459143373,3.384309,3.384309,3603327
12/4/1987,3.38431021457,3.45226825101,3.31635217814,3.357127,3005531
12/7/1987,3.3299412253,3.53381517787,3.3299412253,3.438674,1414476
12/8/1987,3.47945020472,3.53381661417,3.35712578346,3.452267,2164020
12/9/1987,3.39790074906,3.628958,3.39790074906,3.628958,4397935
12/10/1987,3.53381579767,3.75128138521,3.47944940078,3.493041,2166779
12/11/1987,3.50663512782,3.615368,3.42508547368,3.615368,1500926
12/14/1987,3.60177458029,3.79205701095,3.60177458029,3.724099,4132147
12/15/1987,3.6697337234,3.86001621277,3.6697337234,3.832833,1465978
12/16/1987,3.80564978723,3.86001621277,3.76487496809,3.832833,1300434
12/17/1987,3.8600156259,3.87360723022,3.75128279137,3.778466,2968744
12/18/1987,3.8600144,3.873606,3.8328312,3.873606,4428286
12/21/1987,3.81924060357,3.86001541429,3.75128258571,3.805649,1213984
12/22/1987,3.80564920863,3.83283241727,3.71050797842,3.778466,1496328
12/23/1987,3.79205739643,3.81924060357,3.75128258571,3.805649,1571742
12/24/1987,3.778466,3.79205760432,3.73769118705,3.778466,675968
12/28/1987,3.69691479554,3.71050639405,3.61536520446,3.65614,837833
12/29/1987,3.66973439114,3.683326,3.62895956458,3.683326,1307792
12/30/1987,3.64255078519,3.71050882222,3.64255078519,3.669734,1369411
12/31/1987,3.64254981132,3.73769103774,3.601775,3.601775,1383206
1/4/1988,3.66972954545,4.02311090909,3.64254636364,3.887195,1526679
1/5/1988,3.96874740278,3.96874740278,3.83283139583,3.914381,2333242
1/6/1988,3.91438218557,3.99593181443,3.86001576632,3.955157,3392719
1/7/1988,3.95515660345,4.05029782759,3.83283217241,3.941565,5489602
1/8/1988,3.91438167939,3.92797328244,3.561,3.561,2230237
1/11/1988,3.58818259701,3.66973220149,3.54740779478,3.642549,1745563
1/12/1988,3.642549,3.68332380224,3.56099939552,3.642549,1213985
1/13/1988,3.60177560606,3.66973363636,3.53381757576,3.588184,1045682
1/14/1988,3.61536721212,3.6561420303,3.50663436364,3.588184,2439925
1/15/1988,3.66973443609,3.7376924812,3.58818478195,3.615368,1903748
1/18/1988,3.615368,3.69691765414,3.58818478195,3.615368,885656
1/19/1988,3.58818259701,3.80564820896,3.58818259701,3.642549,1694980
1/20/1988,3.60177379377,3.615365393,3.45226620233,3.493041,2576039
1/21/1988,3.5338168254,3.56100003175,3.39790079365,3.425084,4282055
1/22/1988,3.4522709112,3.53382061776,3.43867929344,3.520229,956471
1/25/1988,3.56100131136,3.73769221612,3.56100131136,3.710509,1474255
1/26/1988,3.69691479554,3.71050639405,3.61536520446,3.65614,997859
1/27/1988,3.66973282443,3.68332442748,3.47945038168,3.561,1652674
1/28/1988,3.60177458029,3.724099,3.5881829781,3.724099,1786029
1/29/1988,3.66973259124,3.73769060219,3.61536618248,3.724099,1382287
2/1/1988,3.71050797842,3.778466,3.71050797842,3.778466,1248932
2/2/1988,3.6969163741,3.778466,3.66973316547,3.778466,1542312
2/3/1988,3.77846540876,3.83283181752,3.66973259124,3.724099,3377085
2/4/1988,3.69691721481,3.72410042963,3.62895917778,3.669734,4287572
2/5/1988,3.65614282707,3.68332604511,3.54740995489,3.615368,4363905
2/8/1988,3.61536520446,3.65614,3.56099881041,3.65614,1171679
2/9/1988,3.65614020221,3.72409819853,3.65614020221,3.696915,1505525
2/10/1988,3.69691579562,3.73769060219,3.69691579562,3.724099,1166161
2/11/1988,3.71050758845,3.77846560289,3.69691598556,3.764874,998778
2/12/1988,3.7920564,3.873606,3.7920564,3.873606,3123252
2/16/1988,3.90650479381,4.00245403436,3.86538369072,3.988747,3469021
2/17/1988,4.00245386486,4.11211013514,3.9750397973,4.057282,5268280
2/18/1988,4.0298668495,4.1669371505,4.0024527893,4.098402,2625477
2/19/1988,4.15323250633,4.3862521519,4.12581843038,4.331424,4717467
2/22/1988,4.31771586207,4.372544,4.22176662069,4.372544,2228782
2/23/1988,4.35883508571,4.42737022857,4.24917885714,4.317714,2706640
2/24/1988,4.38625103448,4.49590731034,4.30400882759,4.372544,4001594
2/25/1988,4.39995728846,4.55073464103,4.276594,4.276594,5061270
2/26/1988,4.3040080641,4.33142212821,4.23547290385,4.276594,1865830
2/29/1988,4.24917974843,4.358836,4.22176568553,4.358836,1366999
3/1/1988,4.35883508571,4.37254211429,4.27659291429,4.317714,1080649
3/2/1988,4.2903017931,4.372544,4.27659475862,4.372544,1109831
3/3/1988,4.42736983587,4.59185416413,4.39995578116,4.509612,6973612
3/4/1988,4.49590409877,4.49590409877,4.33141980247,4.441076,2201425
3/7/1988,4.4410770559,4.4684911118,4.3588348882,4.413663,2117526
3/8/1988,4.45478692661,4.4959080367,4.38625174312,4.482201,2403874
3/9/1988,4.4547862069,4.46849324138,4.35883696552,4.372544,1409860
3/10/1988,4.37254511392,4.3862521519,4.29030288608,4.331424,2258876
3/11/1988,4.27659507097,4.31771617742,4.19435285806,4.249181,1660643
3/14/1988,4.27659507097,4.27659507097,4.23547396452,4.249181,952977
3/15/1988,4.24917891374,4.2903,4.22176485623,4.2903,1029581
3/16/1988,4.27659285804,4.345128,4.23547177287,4.345128,1016814
3/17/1988,4.31771490566,4.44107818868,4.31771490566,4.358836,1746366
3/18/1988,4.35883590654,4.41366403115,4.33142184424,4.399957,3245597
3/21/1988,4.35883696552,4.39995806897,4.30400882759,4.372544,1153604
3/22/1988,4.38624790123,4.46849004938,4.37254087654,4.441076,1322314
3/23/1988,4.44107818868,4.46849225157,4.358836,4.358836,994015
3/24/1988,4.2903,4.33142108626,4.20805782748,4.2903,3296666
3/25/1988,4.27659311688,4.2903001461,4.18064391234,4.221765,1630550
3/28/1988,4.22176619868,4.23547323179,4.11210993377,4.139524,918324
3/29/1988,4.19435196743,4.22176603257,4.11210977199,4.208059,787004
3/30/1988,4.30400917799,4.31771621359,4.1943528932,4.235474,1527500
3/31/1988,4.2491799359,4.3040080641,4.22176587179,4.276594,945682
4/4/1988,4.30400697143,4.317714,4.2217648,4.317714,1175491
4/5/1988,4.30400992405,4.34513103797,4.2765958481,4.331424,776061
4/6/1988,4.3314208323,4.413663,4.31771380435,4.413663,1742719
4/7/1988,4.49590497264,4.52331902736,4.45478389058,4.509612,2424851
4/8/1988,4.49590764497,4.632978,4.49590764497,4.632978,2529722
4/11/1988,4.59185780882,4.67410003824,4.56444373235,4.660393,3076886
4/12/1988,4.6329759705,4.646683,4.6055619115,4.646683,1125334
4/13/1988,4.6466850355,4.66039207101,4.59185689349,4.632978,1394356
4/14/1988,4.55073660759,4.55073660759,4.331424,4.331424,1611398
4/15/1988,4.3314208323,4.413663,4.2765927205,4.413663,1467312
4/18/1988,4.34512887539,4.399957,4.34512887539,4.399957,1226560
4/19/1988,4.38624920128,4.42737028754,4.2903,4.2903,2620006
4/20/1988,4.29030119544,4.29030119544,4.19435196743,4.208059,2869877
4/21/1988,4.23547177287,4.46849125552,4.23547177287,4.345128,4613509
4/22/1988,4.35883477914,4.48219802761,4.35883477914,4.468491,1824793
4/25/1988,4.441076,4.53702517284,4.41366195062,4.441076,1112568
4/26/1988,4.42737052802,4.646683,4.42737052802,4.646683,2920946
4/27/1988,4.67409790407,4.74263306395,4.66039087209,4.715219,4217725
4/28/1988,4.71521996522,4.75634106957,4.66039182609,4.728927,2778682
4/29/1988,4.71521903207,4.72892606414,4.66039090379,4.701512,2511484
5/2/1988,4.67409914243,4.68780617804,4.53702878635,4.619271,2572583
5/3/1988,4.6192709645,4.632978,4.57814985799,4.632978,921059
5/4/1988,4.62469411411,4.65230422823,4.597084,4.597084,2331573
5/5/1988,4.5832802439,4.5832802439,4.51425493902,4.52806,1097423
5/6/1988,4.52806,4.55567012195,4.50044987805,4.52806,1310207
5/9/1988,4.514254,4.5280590581,4.5004489419,4.514254,1137264
5/10/1988,4.52806,4.56947518293,4.51425493902,4.52806,1417052
5/11/1988,4.47283882569,4.514254,4.43142365138,4.514254,1596335
5/12/1988,4.51425382727,4.59708417273,4.5004487697,4.555669,1633459
5/13/1988,4.61088855556,4.721329,4.58327844444,4.721329,2970831
5/16/1988,4.72132805279,4.74893815836,4.69371794721,4.707523,1633459
5/17/1988,4.74893821176,4.76274326471,4.693718,4.693718,895505
5/18/1988,4.66610609524,4.7075212381,4.59708085714,4.638496,3101220
5/19/1988,4.58327929052,4.59708434862,4.5004489419,4.514254,2965398
5/20/1988,4.51425174398,4.583277,4.51425174398,4.583277,1623499
5/23/1988,4.56947344582,4.58327850155,4.459033,4.459033,1850771
5/24/1988,4.45903294444,4.472838,4.43142283333,4.472838,1331939
5/25/1988,4.50044811111,4.52805822222,4.44522788889,4.472838,1990212
5/26/1988,4.48664481707,4.52806,4.45903469512,4.52806,1083841
5/27/1988,4.51425316667,4.52805822222,4.44522788889,4.472838,1688692
5/31/1988,4.48664388379,4.58327929052,4.47283882569,4.514254,1238676
6/1/1988,4.55566689759,4.583277,4.51425174398,4.583277,2851311
6/2/1988,4.58327789222,4.610888,4.54186273054,4.610888,1369969
6/3/1988,4.61088768235,4.693718,4.58327757647,4.693718,1988402
6/6/1988,4.693718,4.72132810588,4.56947252353,4.693718,1376307
6/7/1988,4.67991326946,4.69371832335,4.55566778443,4.610888,1956710
6/8/1988,4.66610670349,4.748937,4.63849660465,4.748937,2622228
6/9/1988,4.762743,4.87318341739,4.74893794783,4.762743,2957250
6/10/1988,4.790355,4.84557523055,4.74893982709,4.790355,895505
6/13/1988,4.84557511461,4.84557511461,4.80415994269,4.817965,805864
6/14/1988,4.91460005634,4.92840511268,4.87318488732,4.900795,3682527
6/15/1988,4.88699151381,5.03884718232,4.88699151381,4.997432,5239926
6/16/1988,4.9836252809,4.9836252809,4.85937977528,4.9146,2155912
6/17/1988,4.91459921591,4.91459921591,4.83176889205,4.859379,2920126
6/20/1988,4.85937889266,4.91459910734,4.83176878531,4.886989,1335561
6/21/1988,4.942208,4.98362315084,4.85937769832,4.942208,2925559
6/22/1988,4.99742858919,5.12167405135,4.95601343514,5.107869,5145761
6/23/1988,5.09406787601,5.17689824798,5.06645775202,5.121678,3132003
6/24/1988,5.12167309756,5.13547814634,5.05264785366,5.094063,1183443
6/27/1988,5.05264814876,5.06645319835,4.94220775207,5.011233,2384091
6/28/1988,4.98362290083,5.02503804959,4.94220775207,5.011233,1593619
6/29/1988,4.98362611699,5.01123623398,4.85938059053,4.956016,1838999
6/30/1988,4.96982169863,5.05265206027,4.92840651781,5.038847,1383550
7/1/1988,5.0112319533,5.06645214011,4.96981681319,5.025037,2379564
7/5/1988,5.03884389646,5.17689441417,4.99742874114,5.066454,1892423
7/6/1988,5.08025824793,5.10786834711,4.98362290083,5.011233,1751170
7/7/1988,4.99742820112,5.02503830168,4.942208,4.942208,1522993
7/8/1988,4.92840588301,5.02504129248,4.92840588301,4.956016,1272178
7/11/1988,4.92840588301,5.03884635097,4.92840588301,4.956016,605756
7/12/1988,5.05265224309,5.05265224309,4.95601681768,4.997432,1937695
7/13/1988,5.01123706077,5.03884718232,4.96982187845,4.997432,1247730
7/14/1988,4.99742690659,5.0388420467,4.96981681319,5.025037,1695032
7/15/1988,5.03884309917,5.05264814876,4.99742795041,5.011233,1984780
7/18/1988,5.01123623398,5.01123623398,4.91460082451,4.956016,1078409
7/19/1988,4.92840416102,4.95601426836,4.81796373164,4.886989,1145413
7/20/1988,4.87318488732,4.94221016901,4.84557477465,4.900795,1231432
7/21/1988,4.90079209632,4.92840219263,4.85937695184,4.873182,1627122
7/22/1988,4.84557416379,4.88698932759,4.7903539454,4.804159,1445122
7/25/1988,4.81796394571,4.85937910857,4.77654878286,4.831769,1289382
7/26/1988,4.817965,4.87318522923,4.79035488539,4.817965,861097
7/27/1988,4.84557234593,4.88698749419,4.73513195058,4.748937,1714046
7/28/1988,4.77654982808,4.84557511461,4.74893971347,4.817965,1300248
7/29/1988,4.84557553203,4.956016,4.80416035655,4.956016,1877934
8/1/1988,4.92840384167,4.99742910556,4.92840384167,4.969819,750630
8/2/1988,4.99743033708,5.01123539326,4.85937977528,4.9146,1386267
8/3/1988,4.88699082353,4.98362623529,4.85938070588,4.928406,2242837
8/4/1988,4.92450908523,4.96624221307,4.86886491477,4.896687,923726
8/5/1988,4.81322074432,4.896687,4.81322074432,4.896687,734129
8/8/1988,4.89668914613,4.92451124355,4.854956,4.854956,822188
8/9/1988,4.88277621676,4.88277621676,4.79930995665,4.813221,1384691
8/10/1988,4.78539850602,4.81322059036,4.59064391566,4.618466,1988528
8/11/1988,4.67411038532,4.72975455657,4.50717787156,4.548911,2143081
8/12/1988,4.54891083082,4.604555,4.53499978852,4.604555,1692001
8/15/1988,4.6045541189,4.6045541189,4.562821,4.562821,992916
8/16/1988,4.53499892073,4.59064307927,4.53499892073,4.562821,1351444
8/17/1988,4.56282092121,4.61846507879,4.56282092121,4.590643,1478142
8/18/1988,4.57673377545,4.646289,4.57673377545,4.646289,1269674
8/19/1988,4.632377,4.64628804204,4.60455491592,4.632377,1339763
8/22/1988,4.59064315951,4.59064315951,4.52108796012,4.534999,690997
8/23/1988,4.534999,4.56282107975,4.50717692025,4.534999,620011
8/24/1988,4.56282183133,4.618466,4.53499974699,4.618466,767376
8/25/1988,4.61846682143,4.674111,4.56282264286,4.674111,1277761
8/26/1988,4.70193225301,4.70193225301,4.60455495783,4.618466,4996929
8/29/1988,4.5906456213,4.701934,4.5906456213,4.701934,547226
8/30/1988,4.71584391202,4.75757704399,4.67411078006,4.743666,2302127
8/31/1988,4.74366631437,4.75757735928,4.646289,4.646289,689200
9/1/1988,4.63237691642,4.67411004179,4.53499962388,4.660199,2516885
9/2/1988,4.70193183626,4.77148704094,4.68802079532,4.757576,1267877
9/6/1988,4.785397,4.785397,4.72975284884,4.785397,1275965
9/7/1988,4.78539895652,4.82713208696,4.77148791304,4.79931,1662348
9/8/1988,4.78539935714,4.82713249107,4.674111,4.674111,1029757
9/9/1988,4.67411181176,4.75757809412,4.57673448235,4.729756,1608433
9/12/1988,4.74366714201,4.75757818935,4.67411190533,4.701934,787144
9/13/1988,4.729756,4.74366704706,4.71584495294,4.729756,1603941
9/14/1988,4.77148791304,4.81322104348,4.75757686957,4.79931,1528461
9/15/1988,4.79931190202,4.84104504899,4.78540085303,4.827134,1618317
9/16/1988,4.78539874286,4.868865,4.74366561429,4.868865,1742320
9/19/1988,4.868865,4.88277604286,4.82713187143,4.868865,723346
9/20/1988,4.84104291429,4.868865,4.81322082857,4.868865,937205
9/21/1988,4.882774,4.882774,4.85495192593,4.882774,956973
9/22/1988,4.868865,4.88277604286,4.84104291429,4.868865,519371
9/23/1988,4.8549580546,4.8688691092,4.8132248908,4.841047,492414
9/26/1988,4.84104308671,4.88277621676,4.79930995665,4.813221,1436808
9/27/1988,4.81322016374,4.84104224561,4.72975391813,4.757576,872508
9/28/1988,4.72975391813,4.757576,4.71584287719,4.757576,865319
9/29/1988,4.77148980403,4.85495609798,4.74366770605,4.827134,799724
9/30/1988,4.79931,4.96624252174,4.79931,4.79931,1794437
10/3/1988,4.81322082857,4.868865,4.79930978571,4.868865,752998
10/4/1988,4.868865,4.868865,4.82713187143,4.868865,561604
10/5/1988,4.8688691092,4.8688691092,4.8132248908,4.841047,1119613
10/6/1988,4.84104282955,4.93842012784,4.82713178693,4.896687,1379299
10/7/1988,4.9523338,5.007978,4.93842275,5.007978,2291343
10/10/1988,4.9801559,5.02188905,4.9523338,5.007978,740418
10/11/1988,5.007978,5.02188905,4.9801559,5.007978,2577087
10/12/1988,4.896687,4.93842012784,4.86886491477,4.896687,1279559
10/13/1988,4.84104291429,4.88277604286,4.81322082857,4.868865,3074895
10/14/1988,4.88277809742,4.92451124355,4.84104495129,4.854956,2115225
10/17/1988,4.88277809742,4.91060019484,4.81322285387,4.854956,970451
10/18/1988,4.82713011337,4.85495218895,4.72975284884,4.785397,2232939
10/19/1988,4.78539935714,4.78539935714,4.66019995536,4.674111,1279558
10/20/1988,4.715843,4.7297540413,4.66019883481,4.715843,1195992
10/21/1988,4.70193286804,4.78539913196,4.67411078006,4.743666,2808020
10/24/1988,4.68802213473,4.71584422455,4.63237795509,4.646289,2213169
10/25/1988,4.66020004491,4.67411108982,4.61846691018,4.646289,1390981
10/26/1988,4.67411108982,4.67411108982,4.60455586527,4.646289,1364024
10/27/1988,4.64628804204,4.66019908408,4.59064387387,4.632377,2050529
10/28/1988,4.60455495783,4.70193225301,4.60455495783,4.618466,1017177
10/31/1988,4.66019965015,4.771488,4.61846651895,4.771488,1130396
11/1/1988,4.77148923669,4.77148923669,4.61846771598,4.701934,1354139
11/2/1988,4.67411108982,4.67411108982,4.60455586527,4.646289,1930121
11/3/1988,4.67411016867,4.67411016867,4.618466,4.618466,1021670
11/4/1988,4.6425895528,4.65661550311,4.516356,4.516356,1052513
11/7/1988,4.54441058599,4.54441058599,4.3901250414,4.404151,1636251
11/8/1988,4.43220376774,4.44622972903,4.348048,4.348048,3564818
11/9/1988,4.34804384365,4.36206979153,4.23583626059,4.305966,3293895
11/10/1988,4.291942,4.30596795425,4.24986413725,4.291942,3493523
11/11/1988,4.29194172,4.29194172,4.17973409333,4.207786,2105026
11/14/1988,4.24986592027,4.29194380066,4.19376207973,4.221814,1510591
11/15/1988,4.24986627097,4.348048,4.24986627097,4.348048,1501679
11/16/1988,4.34804633898,4.36207229492,4.10960508814,4.137657,2462399
11/17/1988,4.15168291156,4.17973482313,4.06752717687,4.123631,1161239
11/18/1988,4.13765907407,4.17973696296,4.13765907407,4.165711,949132
11/21/1988,4.15168295593,4.15168295593,4.0955791322,4.137657,1073010
11/22/1988,4.12363311111,4.17973696296,4.12363311111,4.165711,2043531
11/23/1988,4.17973305017,4.193759,4.1516811505,4.193759,1366217
11/25/1988,4.151681,4.16570694932,4.13765505068,4.151681,703160
11/28/1988,4.16570891186,4.16570891186,4.0955791322,4.137657,1062316
11/29/1988,4.10960620134,4.19376195973,4.10960620134,4.179736,1689723
11/30/1988,4.19376082373,4.19376082373,4.12363104407,4.137657,1873312
12/1/1988,4.16570814,4.23583790667,4.13765623333,4.207786,1391171
12/2/1988,4.19376207973,4.24986592027,4.1797361196,4.221814,909028
12/5/1988,4.24986521104,4.37609883117,4.23583925325,4.319995,2404470
12/6/1988,4.34804695793,4.37609887379,4.31999504207,4.334021,1265510
12/7/1988,4.37609804473,4.41817591054,4.36207208946,4.390124,1364434
12/8/1988,4.37609992258,4.39012588387,4.33402203871,4.348048,830602
12/9/1988,4.37609804473,4.43220186581,4.36207208946,4.390124,684445
12/12/1988,4.36207291586,4.40415078964,4.334021,4.334021,1165695
12/13/1988,4.362072,4.39012390997,4.33402009003,4.362072,1032906
12/14/1988,4.348048,4.37609992258,4.33402203871,4.348048,701377
12/15/1988,4.36207396129,4.40415184516,4.31999607742,4.348048,1231644
12/16/1988,4.37610110476,4.418179,4.33402320952,4.418179,1802906
12/19/1988,4.39012629907,4.51635996262,4.39012629907,4.502334,1131829
12/20/1988,4.47428079299,4.54441058599,4.3620731242,4.404151,1034688
12/21/1988,4.40414909494,4.50233076266,4.40414909494,4.432201,976760
12/22/1988,4.460254,4.460254,4.4041501761,4.460254,849318
12/23/1988,4.46025508125,4.488307,4.4322031625,4.488307,787824
12/27/1988,4.47428207477,4.502334,4.46025611215,4.502334,663056
12/28/1988,4.502334,4.51635996262,4.47428207477,4.502334,933091
12/29/1988,4.48830414861,4.530382,4.48830414861,4.530382,1562282
12/30/1988,4.50233009907,4.54440795046,4.50233009907,4.530382,593542
1/3/1989,4.53038592523,4.53038592523,4.47428207477,4.502334,1135394
1/4/1989,4.5303853142,4.67064492145,4.50233339275,4.642593,1906286
1/5/1989,4.65661892121,4.69869680303,4.61454103939,4.628567,1253033
1/6/1989,4.61453935608,4.74077295549,4.61453935608,4.726747,2064921
1/9/1989,4.75479904412,4.79687691176,4.72674713235,4.768825,1292247
1/10/1989,4.76882486647,4.81090273294,4.71272104451,4.726747,710290
1/11/1989,4.726747,4.76882486647,4.71272104451,4.726747,7206282
1/12/1989,4.68466908929,4.74077291071,4.65661717857,4.712721,1022212
1/13/1989,4.71271990419,4.76882371257,4.6706420479,4.684668,1007061
1/16/1989,4.68466917751,4.78285086686,4.65661726627,4.740773,859121
1/17/1989,4.67064313393,4.712721,4.67064313393,4.712721,925961
1/18/1989,4.68466913353,4.74077295549,4.68466913353,4.726747,1522177
1/19/1989,4.69869587349,4.71272183133,4.64259204217,4.656618,2790362
1/20/1989,4.64259122321,4.74077291071,4.64259122321,4.712721,2885721
1/23/1989,4.74077291071,4.78285077679,4.712721,4.712721,2229794
1/24/1989,4.71272117647,4.768825,4.69869522059,4.768825,4741209
1/25/1989,4.796876,4.81090195322,4.74077218713,4.796876,1989169
1/26/1989,4.76882624277,4.90908583815,4.75480028324,4.852982,2058682
1/27/1989,4.89505516193,4.96518489205,4.88102921591,4.937133,3133478
1/30/1989,4.993241,5.00726695787,4.96518908427,4.993241,1112223
1/31/1989,4.99324116667,5.049345,4.97921520833,5.049345,1756564
2/1/1989,5.04934184874,5.0773937479,4.99323805042,5.007264,1187976
2/2/1989,5.00726695787,5.00726695787,4.9511631264,4.993241,1500788
2/3/1989,4.96518695184,4.97921290368,4.93713504816,4.951161,1265511
2/6/1989,4.95116407887,4.979216,4.90908619718,4.979216,1383149
2/7/1989,4.97921520833,5.049345,4.93713733333,5.049345,1387605
2/8/1989,5.03531808864,5.07739595568,5.02129213296,5.06337,1076575
2/9/1989,4.99324091525,5.07739666102,4.93713708475,4.965189,1975800
2/10/1989,4.99323963218,4.99323963218,4.85298009195,4.881032,1302941
2/13/1989,4.82492912968,4.88103295677,4.81090317291,4.867007,1158566
2/14/1989,4.87718523121,4.891322,4.84891169364,4.891322,1551804
2/15/1989,4.86304793103,4.919595,4.86304793103,4.919595,1183085
2/16/1989,4.89132387097,4.90546064516,4.82064,4.82064,1289190
2/17/1989,4.84891169364,4.891322,4.82063815607,4.891322,851502
2/21/1989,4.89132076522,4.90545753043,4.83477370435,4.877184,1491677
2/22/1989,4.877184,4.89132076522,4.83477370435,4.877184,1518204
2/23/1989,4.82063846064,4.86304876968,4.79236492128,4.848912,1177779
2/24/1989,4.86304908235,4.87718585294,4.79236522941,4.806502,953187
2/27/1989,4.77822845882,4.806502,4.76409168824,4.806502,584468
2/28/1989,4.79236667544,4.834777,4.77822990058,4.834777,1825911
3/1/1989,4.84891231176,4.84891231176,4.806502,4.806502,1669405
3/2/1989,4.86304846243,4.91959553757,4.84891169364,4.891322,1053104
3/3/1989,4.89132268768,4.94786977077,4.87718591691,4.933733,1595130
3/6/1989,4.93373176724,4.94786853448,4.90545823276,4.919595,1504056
3/7/1989,4.94787266289,5.03269333711,4.91959910482,4.990283,1903722
3/8/1989,4.99027823446,5.03268853107,4.96200470339,5.004415,1125611
3/9/1989,4.97614052571,4.99027728857,4.93373023714,4.947867,1100853
3/10/1989,4.91959592045,4.976143,4.89132238068,4.976143,1123842
3/13/1989,4.94786923077,4.97614276923,4.93373246154,4.962006,633985
3/14/1989,4.97614276923,4.97614276923,4.93373246154,4.962006,830281
3/15/1989,4.93373023714,4.99027728857,4.91959347429,4.947867,1505825
3/16/1989,4.94786793785,5.004415,4.94786793785,5.004415,1155674
3/17/1989,4.86304770029,4.94786829971,4.86304770029,4.905458,2171642
3/20/1989,4.89132230904,4.90545907872,4.80650169096,4.848912,975293
3/21/1989,4.84891377485,4.87718732456,4.82064022515,4.834777,1152136
3/22/1989,4.8347754593,4.87718577035,4.8347754593,4.863049,922240
3/23/1989,4.89132076522,4.90545753043,4.86304723478,4.877184,1585405
3/27/1989,4.84891169364,4.91959553757,4.83477492486,4.891322,724175
3/28/1989,4.94786853448,4.97614206897,4.919595,4.919595,1003588
3/29/1989,4.933733,4.97614331232,4.933733,4.933733,1230832
3/30/1989,4.91959347429,4.96200376286,4.91959347429,4.947867,1414751
3/31/1989,4.96200654155,4.96200654155,4.90545945845,4.933733,1011546
4/3/1989,4.94787266289,5.07510367422,4.94787266289,4.990283,978829
4/4/1989,4.97614276923,5.00441630769,4.93373246154,4.962006,847081
4/5/1989,4.96200530172,4.99027883621,4.919595,4.919595,1288307
4/6/1989,4.962006,4.97614276923,4.91959569231,4.962006,786954
4/7/1989,4.90545671143,4.947867,4.83477289714,4.947867,1657911
4/10/1989,4.93373176724,4.93373176724,4.89132146552,4.919595,1038073
4/11/1989,4.89132146552,4.919595,4.89132146552,4.919595,390824
4/12/1989,4.91959476657,4.93373153314,4.905458,4.905458,641943
4/13/1989,4.87718446686,4.91959476657,4.83477416715,4.905458,1037189
4/14/1989,4.93373588385,5.00441977904,4.90546232578,4.990283,1141525
4/17/1989,4.91959910482,4.990283,4.91959910482,4.990283,948766
4/18/1989,4.962006,5.00441630769,4.94786923077,4.962006,1095547
4/19/1989,4.96200470339,5.06096206215,4.93373117232,5.004415,1856860
4/20/1989,5.06096353933,5.06096353933,4.99027969101,5.03269,1008009
4/21/1989,5.0044152338,5.04682553239,4.96200493521,5.018552,1626963
4/24/1989,5.0044152338,5.018552,4.96200493521,5.018552,782533
4/25/1989,5.03269333711,5.04683011615,4.990283,4.990283,1322790
4/26/1989,4.99027953846,5.01855307692,4.962006,4.962006,689690
4/27/1989,4.96200615169,5.04682676966,4.96200615169,5.03269,2007177
4/28/1989,5.018552,5.0326887662,5.0044152338,5.018552,974409
5/1/1989,5.01855315278,5.14578407778,5.00441638333,5.089237,1727763
5/2/1989,5.11751061798,5.13164738764,5.03269,5.03269,887755
5/3/1989,5.03268916343,5.11750976731,5.03268916343,5.103373,789607
5/4/1989,5.07543017367,5.16097113165,5.07543017367,5.089687,877649
5/5/1989,5.06117417135,5.11820148596,5.0469173427,5.075431,1248524
5/8/1989,5.04691582436,5.06117264873,5.00414535127,5.032659,848716
5/9/1989,5.0041461733,5.0326598267,5.0041461733,5.018403,1838592
5/10/1989,5.01840282621,5.04691647863,5.004146,5.004146,1788616
5/11/1989,5.0041461733,5.06117348011,5.0041461733,5.018403,744380
5/12/1989,5.03265905292,5.1182,5.01840222841,5.1182,1604494
5/15/1989,5.08968850833,5.132459,5.08968850833,5.132459,2219988
5/16/1989,5.14671716575,5.160974,5.11820349724,5.160974,1689540
5/17/1989,5.16097266111,5.18948632222,5.132459,5.132459,1208192
5/18/1989,5.14671716575,5.18948766851,5.13246033149,5.160974,1662360
5/19/1989,5.13245769231,5.23225548077,5.13245769231,5.189485,1646579
5/22/1989,5.20374117486,5.23225482514,5.14671387432,5.217998,2767095
5/23/1989,5.20374130194,5.23225495291,5.13245717452,5.146714,1499281
5/24/1989,5.11820082682,5.17522813408,5.103944,5.103944,1339709
5/25/1989,5.10394666298,5.17523083425,5.10394666298,5.160974,1923638
5/26/1989,5.18948766851,5.20374450276,5.160974,5.160974,847838
5/30/1989,5.16097266111,5.20374315278,5.132459,5.132459,1004781
5/31/1989,5.13246033149,5.20374450276,5.13246033149,5.160974,994259
6/1/1989,5.16097082548,5.18948447645,5.13245717452,5.146714,1681650
6/2/1989,5.13245769231,5.20374182692,5.13245769231,5.189485,2648731
6/5/1989,5.18948478431,5.18948478431,5.089687,5.089687,743503
6/6/1989,5.11820201918,5.24651349041,5.11820201918,5.203743,1674635
6/7/1989,5.18948482645,5.21799847934,5.13245752066,5.175228,880280
6/8/1989,5.160974,5.17523083425,5.13246033149,5.160974,1161723
6/9/1989,5.13246033149,5.17523083425,5.13246033149,5.160974,2331338
6/12/1989,5.16097117355,5.175228,5.13245752066,5.175228,520803
6/13/1989,5.14671583056,5.17522949167,5.132459,5.132459,723337
6/14/1989,5.14671448045,5.16097130726,5.103944,5.103944,1114378
6/15/1989,5.10394382633,5.13245747899,5.04691652101,5.089687,1330064
6/16/1989,5.03265986592,5.103944,5.03265986592,5.103944,2807426
6/19/1989,5.07543167778,5.132459,5.06117484722,5.132459,789095
6/20/1989,5.10394317549,5.13245682451,5.10394317549,5.1182,1159094
6/21/1989,5.103944,5.11820082682,5.08968717318,5.103944,3249320
6/22/1989,5.08968674387,5.232255,5.08968674387,5.232255,2920530
6/23/1989,5.20374182692,5.21799865385,5.189485,5.189485,1067909
6/26/1989,5.17522765097,5.20374130194,5.146714,5.146714,894308
6/27/1989,5.16097082548,5.20374130194,5.13245717452,5.146714,1035468
6/28/1989,5.11820216944,5.17522949167,5.08968850833,5.132459,3249319
6/29/1989,5.10394396023,5.13245761364,5.0041461733,5.018403,1241510
6/30/1989,5.01840217564,5.06117264873,4.96137487819,5.032659,1272197
7/3/1989,5.00414535127,5.04691582436,4.97563170255,5.032659,1164354
7/5/1989,5.0041446447,5.01840146705,4.96137417765,4.975631,2281363
7/6/1989,4.9471173553,5.0041446447,4.93286053295,4.975631,1684281
7/7/1989,4.97563234758,5.03265965242,4.97563234758,5.004146,1351983
7/10/1989,5.004146,5.04691647863,5.004146,5.004146,1126653
7/11/1989,5.01840235028,5.046916,5.00414552542,5.046916,2736408
7/12/1989,5.07543034637,5.103944,5.04691669274,5.103944,1845607
7/13/1989,5.06117282486,5.07542964972,5.00414552542,5.046916,1032838
7/14/1989,5.07543034637,5.103944,5.04691669274,5.103944,3093254
7/17/1989,5.11820012429,5.11820012429,5.046916,5.046916,640044
7/18/1989,5.04691630286,5.04691630286,4.989889,4.989889,1264306
7/19/1989,4.98988934659,5.018403,4.97563251989,5.018403,619878
7/20/1989,4.9898882948,5.0041451185,4.9043473526,4.932861,2156861
7/21/1989,4.91860457627,5.046916,4.89009092655,5.046916,1750915
7/24/1989,5.00414552542,5.06117282486,4.97563187571,5.046916,1723735
7/25/1989,5.07542952646,5.14671364903,5.07542952646,5.1182,3065198
7/26/1989,5.10394533889,5.14671583056,5.08968850833,5.132459,1475608
7/27/1989,5.132459,5.16097266111,5.10394533889,5.132459,835564
7/28/1989,5.132459,5.16097266111,5.10394533889,5.132459,889924
7/31/1989,5.11820082682,5.16097130726,5.103944,5.103944,1192411
8/1/1989,5.13245682451,5.17522729805,5.08968635097,5.1182,2429538
8/2/1989,5.08968850833,5.16097266111,5.08968850833,5.132459,3354532
8/3/1989,5.132459,5.16097266111,5.10394533889,5.132459,924118
8/4/1989,5.14740947753,5.14740947753,5.08989652247,5.118653,1507486
8/7/1989,5.1186547563,5.1474112437,5.10427651261,5.133033,1880445
8/8/1989,5.1186547563,5.17616773109,5.1186547563,5.133033,1655278
8/9/1989,5.1474091898,5.16178742776,5.06113976204,5.075518,2008243
8/10/1989,5.04676133799,5.16178723743,5.03238310056,5.147409,1507486
8/11/1989,5.17616566572,5.19054390368,5.075518,5.075518,1434459
8/14/1989,5.07551819253,5.11865290805,4.97487052299,5.003627,2078662
8/15/1989,5.01800471098,5.03238294798,4.96049176301,4.97487,1379689
8/16/1989,4.98925,5.01800648415,4.97487175793,4.98925,904143
8/17/1989,4.98925224269,4.98925224269,4.90298275146,4.917361,961521
8/18/1989,4.93173675872,4.96049324128,4.90298027616,4.946115,764175
8/21/1989,4.94611336527,4.9604916018,4.802331,4.802331,1006729
8/22/1989,4.81670923653,4.87422218263,4.802331,4.802331,1691793
8/23/1989,4.83109024478,4.84546848955,4.74482077612,4.816712,1107576
8/24/1989,4.84546975731,4.93173924854,4.8023350117,4.917361,3487038
8/25/1989,4.91736049412,4.98925172941,4.85984750588,4.888604,2676786
8/28/1989,4.85984555233,4.946115,4.85984555233,4.946115,1456193
8/29/1989,4.94611423907,4.9748707172,4.90297952187,4.931736,1364909
8/30/1989,4.9317370317,5.03238472622,4.9317370317,4.98925,1559648
8/31/1989,4.98924979261,5.07551924148,4.98924979261,5.061141,1480535
9/1/1989,5.07551828371,5.16178771629,5.06114004494,5.118653,1300576
9/5/1989,5.14740971831,5.19054443662,5.104275,5.104275,2437711
9/6/1989,5.118653,5.14740947753,5.06114004494,5.118653,1357085
9/7/1989,5.08989623796,5.13303095184,5.075518,5.075518,1287536
9/8/1989,5.08989623796,5.10427447592,5.06113976204,5.075518,2187333
9/11/1989,5.089898,5.10427624294,5.07551975706,5.089898,1428373
9/12/1989,5.089898,5.11865448588,5.07551975706,5.089898,692017
9/13/1989,5.11865323944,5.13303147887,5.08989676056,5.104275,1605725
9/14/1989,5.10427624294,5.10427624294,5.07551975706,5.089898,1378819
9/15/1989,5.08989676056,5.13303147887,5.06114028169,5.104275,2680265
9/18/1989,5.07552002521,5.133033,5.01800705042,5.133033,1530958
9/19/1989,5.11865308791,5.233679,5.11865308791,5.233679,2133432
9/20/1989,5.23367842458,5.23367842458,5.147409,5.147409,785040
9/21/1989,5.16178795775,5.16178795775,5.104275,5.104275,831986
9/22/1989,5.075518,5.08989623796,5.04676152408,5.075518,1432720
9/25/1989,5.10427572443,5.10427572443,5.061141,5.061141,1105837
9/26/1989,5.03238521739,5.04676346087,4.960494,4.960494,1207553
9/27/1989,4.96049176301,5.00362647399,4.93173528902,4.97487,705927
9/28/1989,4.97487148256,4.98924972384,4.91735851744,4.946115,2141256
9/29/1989,4.94611423907,4.96049247813,4.8886012828,4.931736,1242328
10/2/1989,4.90297871006,4.91735694675,4.83108752663,4.859844,1463148
10/3/1989,4.87422549258,4.90298198516,4.78795601484,4.845469,2186462
10/4/1989,4.88860450292,4.94611749708,4.87422625439,4.917361,1031940
10/5/1989,4.8742245132,4.9317374868,4.84546802639,4.902981,1298837
10/6/1989,4.902981,4.9317374868,4.85984626979,4.902981,822423
10/9/1989,4.88860057803,5.00362647399,4.87422234104,4.97487,1224072
10/10/1989,5.01800775429,5.04676424571,4.97487301714,5.032386,946742
10/11/1989,5.03238524355,5.07551997421,5.00362875645,5.018007,1089319
10/12/1989,5.00362873043,5.00362873043,4.94611575652,4.960494,1015423
10/13/1989,4.94611325153,4.94611325153,4.687305,4.687305,1334482
10/16/1989,4.48601157764,4.80233290683,4.4716333354,4.629794,4111246
10/17/1989,4.62979285196,4.77357523867,4.60103637462,4.759197,2480310
10/18/1989,4.73044052266,4.85984467069,4.71606228399,4.759197,782432
10/19/1989,4.78795420427,4.80233244512,4.716063,4.716063,1286666
10/20/1989,4.6873077116,4.71606420063,4.57228175549,4.58666,2429016
10/23/1989,4.61541575776,4.65855048447,4.57228103106,4.629794,3203625
10/24/1989,4.629794,4.71606345342,4.48601157764,4.629794,1350999
10/25/1989,4.60103849057,4.64417322642,4.54352550943,4.572282,995427
10/26/1989,4.55790224051,4.58665872152,4.543524,4.543524,1556170
10/27/1989,4.54352550943,4.58666024528,4.52914726415,4.572282,2092571
10/30/1989,4.54352445161,4.58665917742,4.44287675806,4.457255,1363170
10/31/1989,4.47163698413,4.54352825397,4.44288047619,4.52915,2208195
11/1/1989,4.52914750789,4.557904,4.50039101577,4.557904,1926521
11/2/1989,4.514768,4.52914624204,4.47163327389,4.514768,2371639
11/3/1989,4.486011,4.50038924038,4.44287627885,4.486011,1439675
11/6/1989,4.41399428197,4.45755343607,4.37043512787,4.428514,2542232
11/7/1989,4.35591515152,4.35591515152,4.312356,4.312356,1739875
11/8/1989,4.32687485714,4.370434,4.32687485714,4.370434,2479387
11/9/1989,4.39947342857,4.39947342857,4.35591428571,4.370434,1696830
11/10/1989,4.34139528333,4.37043471667,4.31235585,4.355915,2065295
11/13/1989,4.37043471667,4.39947415,4.355915,4.355915,1287903
11/14/1989,4.35591587838,4.39947503716,4.297837,4.297837,675805
11/15/1989,4.32687541914,4.399474,4.32687541914,4.399474,1268964
11/16/1989,4.41399484039,4.47207371987,4.37043568078,4.457554,1673586
11/17/1989,4.44303087379,4.48659,4.42851116505,4.48659,1386047
11/20/1989,4.50111259016,4.50111259016,4.41399428197,4.428514,918578
11/21/1989,4.428514,4.45755343607,4.3849548459,4.428514,2008475
11/22/1989,4.428514,4.44303371803,4.3849548459,4.428514,1436839
11/24/1989,4.44303371803,4.48659287213,4.41399428197,4.428514,956457
11/27/1989,4.42851369775,4.53015171704,4.41399398071,4.515632,2308068
11/28/1989,4.54467085443,4.60274971519,4.51563142405,4.58823,763616
11/29/1989,4.55919184227,4.61727071924,4.53015240379,4.602751,891029
11/30/1989,4.57371028481,4.61726943038,4.53015113924,4.58823,1526372
12/1/1989,4.60275354545,4.631793,4.57371409091,4.631793,2256412
12/4/1989,4.61726928221,4.733427,4.57371013804,4.733427,1103671
12/5/1989,4.70439,4.76246888889,4.68987027778,4.70439,1100227
12/6/1989,4.67534785846,4.74794642769,4.67534785846,4.718907,895334
12/7/1989,4.68987190909,4.73343109091,4.53015490909,4.631793,1016720
12/8/1989,4.60275354545,4.66083245455,4.60275354545,4.631793,2327006
12/11/1989,4.61727327273,4.64631272727,4.58823381818,4.631793,610376
12/12/1989,4.61727013043,4.675349,4.58823069565,4.675349,2079930
12/13/1989,4.67535218182,4.70439163636,4.60275354545,4.631793,886724
12/14/1989,4.61727071924,4.63179043849,4.602751,4.602751,824740
12/15/1989,4.602751,4.602751,4.5011129653,4.602751,2564615
12/18/1989,4.57371159677,4.61727075484,4.44303412258,4.501113,1589218
12/19/1989,4.48659328065,4.55919187742,4.48659328065,4.501113,1235388
12/20/1989,4.53015057325,4.58822942675,4.53015057325,4.55919,648256
12/21/1989,4.53015225,4.64631,4.53015225,4.64631,1038243
12/22/1989,4.64630943396,4.66082915094,4.55919113208,4.61727,487268
12/26/1989,4.63178913932,4.76246657585,4.60274970898,4.689868,1253468
12/27/1989,4.68986785583,4.733427,4.66082842638,4.733427,1401542
12/28/1989,4.73342773585,4.74794745283,4.60275028302,4.61727,735207
12/29/1989,4.64630943396,4.66082915094,4.61727,4.61727,783417
1/2/1990,4.64630885449,4.73342714551,4.5446708483,4.689868,1703717
1/3/1990,4.66082814759,4.84958442771,4.66082814759,4.820545,1400681
1/4/1990,4.82054514286,4.84958457143,4.68986771429,4.776986,1061487
1/5/1990,4.73342671385,4.77698585538,4.68986757231,4.718907,3360086
1/8/1990,4.68986799394,4.791506,4.66082856364,4.791506,1857818
1/9/1990,4.79150643293,4.79150643293,4.73342756707,4.762467,1679612
1/10/1990,4.73342671385,4.74794642769,4.63178871692,4.718907,1377437
1/11/1990,4.71890972222,4.73342944444,4.67535055556,4.70439,1425647
1/12/1990,4.64631272727,4.70439163636,4.60275354545,4.631793,1522928
1/15/1990,4.6172705625,4.64631,4.6172705625,4.64631,1013277
1/16/1990,4.61727166667,4.70439,4.61727166667,4.70439,1301677
1/17/1990,4.6753494375,4.68986915625,4.63179028125,4.64631,910830
1/18/1990,4.63178871692,4.74794642769,4.63178871692,4.718907,1008973
1/19/1990,4.71890801887,4.71890801887,4.60275028302,4.61727,2202177
1/22/1990,4.63178989286,4.66082932792,4.472073,4.472073,1052017
1/23/1990,4.48659073333,4.63178784444,4.48659073333,4.573709,1137247
1/24/1990,4.54467196875,4.68986915625,4.53015225,4.64631,1138968
1/25/1990,4.64630886076,4.67534829114,4.58823,4.58823,1144994
1/26/1990,4.61726943038,4.63178914557,4.53015113924,4.58823,1469553
1/29/1990,4.58823128076,4.68986931546,4.57371156151,4.602751,1565112
1/30/1990,4.60274971519,4.63178914557,4.55919056962,4.58823,1274129
1/31/1990,4.61727,4.63178971698,4.60275028302,4.61727,656865
2/1/1990,4.6172688535,4.63178856688,4.55919,4.55919,921161
2/2/1990,4.57371028481,4.61726943038,4.54467085443,4.58823,566471
2/5/1990,4.58823,4.61726943038,4.57371028481,4.58823,1356775
2/6/1990,4.55919113208,4.61727,4.51563198113,4.61727,735207
2/7/1990,4.61727071924,4.63179043849,4.58823128076,4.602751,1249163
2/8/1990,4.61726943038,4.63178914557,4.58823,4.58823,1407568
2/9/1990,4.61727327273,4.631793,4.58823381818,4.631793,743815
2/12/1990,4.61726943038,4.63178914557,4.58823,4.58823,454554
2/13/1990,4.57415696203,4.6328,4.57415696203,4.6328,907183
2/14/1990,4.66211924765,4.67678,4.6474584953,4.67678,545674
2/15/1990,4.6767825205,4.69144328076,4.63280023975,4.647461,490254
2/16/1990,4.66212176025,4.66212176025,4.63280023975,4.647461,1443479
2/20/1990,4.63280003846,4.63280003846,4.574157,4.574157,1283187
2/21/1990,4.57415524601,4.64745901597,4.55949449201,4.588816,1539825
2/22/1990,4.60347677023,4.61813752427,4.530173,4.530173,1145063
2/23/1990,4.55949624038,4.58881775962,4.54483548077,4.574157,1561140
2/26/1990,4.60347675399,4.61813750799,4.53017298403,4.588816,2080384
2/27/1990,4.58881795899,4.66212176025,4.58881795899,4.647461,1935438
2/28/1990,4.64745973125,4.691442,4.64745973125,4.691442,1471615
3/1/1990,4.66211924765,4.67678,4.6181369906,4.67678,1810104
3/2/1990,4.66211825688,4.80872574924,4.64745750765,4.794065,1637024
3/5/1990,4.779406,4.86737052761,4.7500844908,4.779406,870521
3/6/1990,4.77940425076,4.83804724771,4.77940425076,4.794065,901215
3/7/1990,4.7794057386,4.8673702614,4.7794057386,4.823388,890984
3/8/1990,4.82338848943,4.86737075529,4.82338848943,4.85271,844942
3/9/1990,4.8380475,4.85270825,4.73542225,4.750083,505601
3/12/1990,4.75008275229,4.80872574924,4.75008275229,4.794065,754565
3/13/1990,4.7647452454,4.86737052761,4.7500844908,4.779406,1120337
3/14/1990,4.76474227273,4.85270674545,4.76474227273,4.838046,482581
3/15/1990,4.80872773414,4.85271,4.79406697885,4.85271,1093906
3/16/1990,4.896692,4.91135275449,4.86737049102,4.896692,1816925
3/19/1990,4.88203173214,4.926014,4.85271022024,4.926014,894394
3/20/1990,4.91135324405,4.9553355119,4.88203173214,4.926014,1384648
3/21/1990,4.92601547929,4.98465852071,4.89669395858,4.955337,1296829
3/22/1990,4.955337,4.96999776036,4.92601547929,4.955337,1462236
3/23/1990,4.955337,4.98465852071,4.92601547929,4.955337,817658
3/26/1990,4.969995,4.98465575221,4.969995,4.969995,687208
3/27/1990,4.940675,5.04330029674,4.940675,4.940675,1144211
3/28/1990,5.05795875,5.05795875,4.984655,4.984655,335930
3/29/1990,4.98465575221,4.99931650442,4.92601274336,4.969995,671861
3/30/1990,4.98465847953,5.02864076023,4.9699977193,5.01398,557610
4/2/1990,4.969995,4.969995,4.91135199115,4.969995,908889
4/3/1990,4.99931872384,5.043301,4.9699972064,5.043301,775880
4/4/1990,5.01397822478,5.10194275504,5.01397822478,5.087282,1231178
4/5/1990,5.10194403488,5.10194403488,4.98465796512,5.043301,1255903
4/6/1990,5.0139787566,5.04330026979,4.95533573021,4.999318,869668
4/9/1990,5.0139765,5.0139765,4.96999425,4.984655,631788
4/10/1990,4.9846572434,4.999318,4.9699964868,4.999318,621557
4/11/1990,4.98465796512,5.043301,4.98465796512,5.043301,450181
4/12/1990,5.02864,5.05796151603,5.01397924198,5.02864,942993
4/16/1990,5.04330152047,5.07262304094,5.01398,5.01398,716197
4/17/1990,4.98465772595,5.04330075802,4.95533620991,5.02864,554200
4/18/1990,5.04329973487,5.087282,5.04329973487,5.087282,445918
4/19/1990,5.0726197423,5.2485487507,5.0286374902,5.233888,2684037
4/20/1990,5.24855219835,5.42448132231,5.24855219835,5.321856,3122280
4/23/1990,5.29253202833,5.33651428895,5.175246,5.175246,1839946
4/24/1990,5.17524573056,5.30719250556,5.17524573056,5.277871,1492078
