10/4/1989,2.09312475,2.159362875,2.0666295,2.11962,24339268
10/5/1989,2.13286652727,2.22559985455,2.11961890909,2.185857,7611745
10/6/1989,2.1991058773,2.22560112883,2.159363,2.159363,3249638
10/9/1989,2.159363,2.159363,2.1196201227,2.159363,1278530
10/10/1989,2.17261024691,2.17261024691,2.11961975309,2.146115,1761636
10/11/1989,2.11962037267,2.132868,2.09312511801,2.132868,1486115
10/12/1989,2.13286737654,2.15936262346,2.13286737654,2.146115,710504
10/13/1989,2.14611588679,2.14611588679,2.09312537107,2.106373,4682913
10/16/1989,2.01363924051,2.093125,2.01363924051,2.093125,4629131
10/17/1989,2.0666295,2.11962,2.0666295,2.11962,2173974
10/18/1989,2.1196201227,2.17261062577,2.10637249693,2.159363,1330427
10/19/1989,2.14611537423,2.159363,2.14611537423,2.159363,1226634
10/20/1989,2.146115,2.146115,2.13286737654,2.146115,280238
10/23/1989,2.159363,2.17261062577,2.159363,2.159363,102848
10/24/1989,2.15936436585,2.172612,2.14611673171,2.172612,813352
10/25/1989,2.159363,2.18585825153,2.13286774847,2.159363,717109
10/26/1989,2.159363,2.17261062577,2.159363,2.159363,269859
10/27/1989,2.15936325466,2.15936325466,2.11962037267,2.132868,537832
10/30/1989,2.132867625,2.132867625,2.11962,2.11962,295335
10/31/1989,2.11962,2.132867625,2.11962,2.11962,501033
11/1/1989,2.13286909756,2.172612,2.13286909756,2.172612,843546
11/2/1989,2.19910513609,2.238848,2.19910513609,2.238848,153801
11/3/1989,2.22560064,2.33158162286,2.22560064,2.318334,1319104
11/6/1989,2.30508556364,2.30508556364,2.185857,2.185857,312320
11/7/1989,2.15936334884,2.278592,2.11962046512,2.278592,857700
11/8/1989,2.27859174713,2.305087,2.26534412069,2.305087,279295
11/9/1989,2.30508725581,2.30508725581,2.278592,2.278592,71710
11/10/1989,2.27859307317,2.27859307317,2.15936436585,2.172612,248157
11/13/1989,2.17261062577,2.17261062577,2.13286774847,2.159363,109453
11/14/1989,2.18585787037,2.18585787037,2.10637212963,2.146115,504807
11/15/1989,2.15936436585,2.18585963415,2.14611673171,2.172612,207584
11/16/1989,2.15936312048,2.199106,2.15936312048,2.199106,355724
11/17/1989,2.19910513609,2.238848,2.19910513609,2.238848,294392
11/20/1989,2.25209586826,2.25209586826,2.212353,2.212353,50952
11/21/1989,2.19910490058,2.265343,2.19910490058,2.265343,128324
11/22/1989,2.2785915,2.331582,2.2785915,2.331582,300997
11/24/1989,2.35807736898,2.50380125134,2.35807736898,2.477306,674649
11/27/1989,2.46405825,2.4905535,2.424315375,2.437563,299110
11/28/1989,2.43756185635,2.43756185635,2.397819,2.397819,660496
11/29/1989,2.3845726257,2.3845726257,2.3580773743,2.371325,71710
11/30/1989,2.38457189189,2.46405762162,2.38457189189,2.45081,840716
12/1/1989,2.45081037634,2.50380087097,2.45081037634,2.464058,420830
12/4/1989,2.49055313089,2.530296,2.43756263874,2.530296,202866
12/5/1989,2.50380087097,2.53029611828,2.464058,2.464058,110397
12/6/1989,2.46405788482,2.54354362304,2.46405788482,2.530296,788820
12/7/1989,2.53029624868,2.53029624868,2.47730575132,2.503801,253819
12/8/1989,2.47730575132,2.503801,2.47730575132,2.503801,144365
12/11/1989,2.51704875,2.57003925,2.4905535,2.543544,361385
12/12/1989,2.556791,2.57003862176,2.53029575648,2.556791,1320048
12/13/1989,2.54354376238,2.67602,2.53029613861,2.67602,471782
12/14/1989,2.649525,2.662772625,2.636277375,2.649525,461403
12/15/1989,2.66277325628,2.66277325628,2.62303037186,2.636278,183051
12/18/1989,2.60978187113,2.64952474227,2.570039,2.570039,264198
12/19/1989,2.5700387551,2.596534,2.5700387551,2.596534,253819
12/20/1989,2.59653338071,2.63627623858,2.58328576142,2.609781,196261
12/21/1989,2.636278,2.64952562814,2.59653511558,2.636278,205697
12/22/1989,2.649525,2.649525,2.636277375,2.649525,204753
12/26/1989,2.63627623858,2.63627623858,2.609781,2.609781,115115
12/27/1989,2.59653424742,2.59653424742,2.570039,2.570039,169841
12/28/1989,2.58328662371,2.58328662371,2.570039,2.570039,13209
12/29/1989,2.5700390099,2.67602,2.55679138614,2.67602,258536
1/2/1990,2.64952615385,2.64952615385,2.57004036923,2.583288,229286
1/3/1990,2.59653424742,2.59653424742,2.570039,2.570039,426491
1/4/1990,2.57003912169,2.59653437037,2.503801,2.503801,196261
1/5/1990,2.49055324731,2.49055324731,2.42431512903,2.464058,118889
1/8/1990,2.43756362842,2.45081125683,2.41106837158,2.424316,1038865
1/9/1990,2.39781962222,2.41106724444,2.384572,2.384572,333078
1/10/1990,2.35005253179,2.35005253179,2.28366686705,2.296944,922638
1/11/1990,2.31022172727,2.35005313636,2.29694459091,2.336776,408597
1/12/1990,2.310221,2.32349813218,2.28366673563,2.310221,187352
1/15/1990,2.32349813218,2.32349813218,2.310221,2.310221,30126
1/16/1990,2.28366686705,2.296944,2.23055833526,2.296944,203357
1/17/1990,2.310221,2.3898837931,2.310221,2.310221,254196
1/18/1990,2.28366686705,2.31022113295,2.28366686705,2.296944,185469
1/19/1990,2.32349886364,2.336776,2.32349886364,2.336776,10356
1/22/1990,2.323499,2.33677613714,2.31022186286,2.323499,66844
1/23/1990,2.35005313636,2.35005313636,2.32349886364,2.336776,119566
1/24/1990,2.32349738372,2.32349738372,2.283666,2.283666,31068
1/25/1990,2.28366673563,2.310221,2.27038960345,2.310221,293738
1/26/1990,2.29694426901,2.31022140351,2.27039,2.27039,53663
1/29/1990,2.28366537278,2.28366537278,2.23055687574,2.243834,522515
1/30/1990,2.23055774118,2.257112,2.19072635294,2.257112,644905
1/31/1990,2.28366655738,2.429715,2.28366655738,2.429715,891570
2/1/1990,2.44299213115,2.44299213115,2.41643786885,2.429715,176054
2/2/1990,2.442992,2.46954626087,2.442992,2.442992,847321
2/5/1990,2.46954626087,2.46954626087,2.442992,2.442992,192059
2/6/1990,2.44299286486,2.46954713514,2.41643859459,2.45627,116742
2/7/1990,2.46954574468,2.4961,2.46954574468,2.4961,38600
2/8/1990,2.52265435897,2.65542564103,2.52265435897,2.58904,407655
2/9/1990,2.61559465104,2.65542604167,2.52265473958,2.549209,210888
2/12/1990,2.54920877419,2.54920877419,2.469546,2.469546,32951
2/13/1990,2.49610186243,2.509379,2.49610186243,2.509379,31068
2/14/1990,2.50937712766,2.52265425532,2.4961,2.4961,38600
2/15/1990,2.509379,2.52265613757,2.509379,2.509379,178878
2/16/1990,2.522655,2.522655,2.522655,2.522655,37658
2/20/1990,2.53593327513,2.53593327513,2.509379,2.509379,27302
2/21/1990,2.5093773871,2.5093773871,2.469546,2.469546,651496
2/22/1990,2.46954550549,2.46954550549,2.416437,2.416437,174171
2/23/1990,2.36332952874,2.36332952874,2.28366673563,2.310221,676915
2/26/1990,2.32349886364,2.336776,2.32349886364,2.336776,562056
2/27/1990,2.35005136813,2.416437,2.35005136813,2.416437,420836
2/28/1990,2.38988413408,2.40316126816,2.376607,2.376607,171347
3/1/1990,2.37660740909,2.37660740909,2.336776,2.336776,265493
3/2/1990,2.33677539884,2.36332966474,2.28366686705,2.296944,1095869
3/5/1990,2.27039,2.29694426901,2.2571128655,2.27039,172288
3/6/1990,2.27039045143,2.323499,2.23055904,2.323499,304094
3/7/1990,2.32349886364,2.336776,2.29694459091,2.336776,205240
3/8/1990,2.33677474157,2.37660612921,2.32349761236,2.363329,172288
3/9/1990,2.33677613714,2.36333041143,2.323499,2.323499,228776
3/12/1990,2.29694312791,2.31022025581,2.23055748837,2.283666,1262509
3/13/1990,2.27038887209,2.283666,2.27038887209,2.283666,779536
3/14/1990,2.27039018644,2.350053,2.27039018644,2.350053,351167
3/15/1990,2.36332952874,2.37660666092,2.310221,2.310221,225952
3/16/1990,2.33677474157,2.363329,2.32349761236,2.363329,319157
3/19/1990,2.33677586441,2.350053,2.33677586441,2.350053,560173
3/20/1990,2.33677559777,2.46954693855,2.33677559777,2.376607,1057268
3/21/1990,2.376607,2.38988413408,2.376607,2.376607,120507
3/22/1990,2.33677586441,2.350053,2.33677586441,2.350053,209005
3/23/1990,2.376607,2.376607,2.376607,2.376607,376587
3/26/1990,2.36333027273,2.36333027273,2.336776,2.336776,44248
3/27/1990,2.32349886364,2.336776,2.32349886364,2.336776,28244
3/28/1990,2.41643735829,2.49610012834,2.41643735829,2.482823,831316
3/29/1990,2.48282312903,2.49610025806,2.45626887097,2.469546,425543
3/30/1990,2.482823,2.482823,2.482823,2.482823,190176
4/2/1990,2.4828233913,2.4828233913,2.41643773913,2.442992,217479
4/3/1990,2.44299208377,2.57576339267,2.44299208377,2.535932,421777
4/4/1990,2.53593164516,2.53593164516,2.469546,2.469546,429309
4/5/1990,2.49610025806,2.5093773871,2.469546,2.469546,439665
4/6/1990,2.48282316292,2.48282316292,2.363329,2.363329,953707
4/9/1990,2.328731,2.35534506857,2.328731,2.328731,395467
4/10/1990,2.3420379661,2.39526610169,2.31542389831,2.355345,500675
4/11/1990,2.36865210286,2.39526617143,2.31542396571,2.328731,275230
4/12/1990,2.31542421429,2.32873125,2.20896792857,2.235582,535431
4/16/1990,2.24888886127,2.32873106936,2.24888886127,2.302117,321258
4/17/1990,2.315424,2.315424,2.30211696552,2.315424,19726
4/18/1990,2.28880993103,2.34203806897,2.28880993103,2.315424,391710
4/19/1990,2.31542406977,2.31542406977,2.27550296512,2.28881,243292
4/20/1990,2.275501,2.28880802339,2.26219397661,2.275501,198203
4/23/1990,2.26219607143,2.26219607143,2.235582,2.235582,203839
4/24/1990,2.235582,2.27550310714,2.235582,2.235582,538249
4/25/1990,2.262196,2.27550303529,2.24888896471,2.262196,122115
4/26/1990,2.23558186047,2.28881,2.23558186047,2.28881,542006
4/27/1990,2.28880996532,2.302117,2.28880996532,2.302117,156871
4/30/1990,2.30211696552,2.315424,2.28880993103,2.315424,80784
5/1/1990,2.31542476667,2.40857403889,2.28881068889,2.395267,860446
5/2/1990,2.36865292222,2.40857403889,2.35534588333,2.395267,675394
5/3/1990,2.42187902762,2.43518605525,2.408572,2.408572,123994
5/4/1990,2.42187911236,2.42187911236,2.368651,2.368651,327834
5/7/1990,2.36865186813,2.42188,2.36865186813,2.42188,38513
5/8/1990,2.42187902762,2.42187902762,2.408572,2.408572,57300
5/9/1990,2.42188111732,2.43518815642,2.38196,2.38196,1447542
5/10/1990,2.39526703911,2.42188111732,2.38196,2.38196,502553
5/11/1990,2.40857388587,2.448495,2.40857388587,2.448495,201960
5/14/1990,2.46180130682,2.46180130682,2.342038,2.342038,2839663
5/15/1990,2.36865292222,2.40857403889,2.34203884444,2.395267,6815941
5/16/1990,2.39526677419,2.52833715054,2.39526677419,2.475109,431162
5/17/1990,2.48841592593,2.51503,2.48841592593,2.51503,230141
5/18/1990,2.52833692708,2.554951,2.52833692708,2.554951,213233
5/21/1990,2.52833703704,2.52833703704,2.48841592593,2.51503,87359
5/22/1990,2.54164403684,2.54164403684,2.528337,2.528337,47906
5/23/1990,2.52833715054,2.52833715054,2.475109,2.475109,35695
5/24/1990,2.48841627222,2.48841627222,2.34203884444,2.395267,567368
5/25/1990,2.39526684783,2.448495,2.34203869565,2.448495,960018
5/29/1990,2.46180196237,2.475109,2.46180196237,2.475109,71390
5/30/1990,2.50172292632,2.54164403684,2.48841588947,2.528337,152175
5/31/1990,2.50172292632,2.54164403684,2.47510885263,2.528337,168144
6/1/1990,2.528337,2.54164403684,2.51502996316,2.528337,55421
6/4/1990,2.50172289005,2.541644,2.47510881675,2.541644,79844
6/5/1990,2.54164422703,2.55495126486,2.38195977297,2.461802,1321669
6/6/1990,2.46180203804,2.47510907609,2.448495,2.448495,51664
6/7/1990,2.46180106557,2.46180106557,2.435187,2.435187,249867
6/8/1990,2.44849406593,2.44849406593,2.39526593407,2.42188,476251
6/11/1990,2.43518796196,2.46180203804,2.42188092391,2.448495,57300
6/12/1990,2.47510881675,2.55495103665,2.43518770681,2.541644,230141
6/13/1990,2.528337,2.63479329474,2.528337,2.528337,244231
6/14/1990,2.5150299267,2.541644,2.50172289005,2.541644,24423
6/15/1990,2.54164403684,2.54164403684,2.48841588947,2.528337,185991
6/18/1990,2.528337,2.528337,2.528337,2.528337,1878
6/19/1990,2.50172203209,2.50172203209,2.44849390374,2.488415,204778
6/20/1990,2.51502903191,2.51502903191,2.47510793617,2.501722,149357
6/21/1990,2.48841496809,2.501722,2.48841496809,2.501722,7514
6/22/1990,2.50172296296,2.51503,2.48841592593,2.51503,418951
6/25/1990,2.488415,2.50172203209,2.47510796791,2.488415,29119
6/26/1990,2.47510796791,2.488415,2.43518687166,2.488415,243292
6/27/1990,2.488415,2.50172203209,2.488415,2.488415,15969
6/28/1990,2.50172292632,2.528337,2.50172292632,2.528337,185052
6/29/1990,2.54164403684,2.54164403684,2.51502996316,2.528337,384195
7/2/1990,2.5150301129,2.5150301129,2.44849492473,2.475109,378559
7/3/1990,2.50172315217,2.50172315217,2.448495,2.448495,362590
7/5/1990,2.42187902762,2.42187902762,2.39526497238,2.408572,700757
7/6/1990,2.36865296089,2.38196,2.36865296089,2.38196,96753
7/9/1990,2.38195802809,2.39526505618,2.34203694382,2.368651,851054
7/10/1990,2.373987,2.373987,2.36064999438,2.373987,1257778
7/11/1990,2.37398699441,2.40066100559,2.37398699441,2.387324,909124
7/12/1990,2.38732397283,2.48068301087,2.38732397283,2.454009,1416172
7/13/1990,2.480682,2.560704,2.480682,2.53403,665442
7/16/1990,2.547367,2.560704,2.53403,2.53403,797593
7/17/1990,2.53403101604,2.53403101604,2.49402,2.49402,119966
7/18/1990,2.494019,2.494019,2.427334,2.427334,407700
7/19/1990,2.40066097826,2.454009,2.38732397283,2.454009,545474
7/20/1990,2.467346,2.48068300541,2.467346,2.467346,59983
7/23/1990,2.45400897872,2.507357,2.4406719734,2.507357,409574
7/24/1990,2.480682,2.574041,2.480682,2.547367,414261
7/25/1990,2.57404199485,2.587379,2.56070498969,2.587379,60920
7/26/1990,2.614053,2.614053,2.5873789898,2.614053,93724
7/27/1990,2.587378,2.614052,2.547367,2.547367,88100
7/30/1990,2.560705,2.560705,2.54736799479,2.560705,188385
7/31/1990,2.52069398438,2.57404200521,2.52069398438,2.560705,205255
8/1/1990,2.58737900518,2.61405301554,2.56070499482,2.574042,157456
8/2/1990,2.66740197044,2.707413,2.58737991133,2.707413,1238096
8/3/1990,2.69407498537,2.78743401951,2.65406397073,2.734086,1490214
8/6/1990,2.77409496,2.787431955,2.667399,2.667399,289607
8/7/1990,2.66739900498,2.680736,2.66739900498,2.680736,174327
8/8/1990,2.6674010101,2.68073801515,2.640727,2.640727,199632
8/9/1990,2.640727,2.640727,2.6140529899,2.640727,346779
8/10/1990,2.640727,2.65406400505,2.640727,2.640727,350528
8/13/1990,2.65406401015,2.66740101523,2.62739,2.62739,66544
8/14/1990,2.65406401531,2.65406401531,2.614053,2.614053,58108
8/15/1990,2.61405102,2.69407299,2.61405102,2.667399,229624
8/16/1990,2.654064,2.66740100503,2.62738998995,2.654064,164017
8/17/1990,2.680736,2.72074698507,2.66739900498,2.680736,236185
8/20/1990,2.69407607179,2.69407607179,2.600717,2.600717,280235
8/21/1990,2.61405299492,2.64072700508,2.61405299492,2.62739,529541
8/22/1990,2.61405301554,2.64072702591,2.574042,2.574042,390829
8/23/1990,2.560704,2.560704,2.507356,2.53403,426445
8/24/1990,2.49401997396,2.560705,2.49401997396,2.560705,382394
8/27/1990,2.56070603175,2.56070603175,2.520695,2.520695,103096
8/28/1990,2.520693,2.547367,2.520693,2.547367,9372
8/29/1990,2.5740420266,2.5740420266,2.507357,2.507357,164954
8/30/1990,2.520693,2.547367,2.480682,2.547367,76853
8/31/1990,2.5206940107,2.54736802139,2.4673459893,2.49402,300854
9/4/1990,2.50735798942,2.520695,2.50735798942,2.520695,23431
9/5/1990,2.52069486207,2.72075000985,2.52069486207,2.707413,261490
9/6/1990,2.73408694313,2.814109,2.72074993365,2.814109,372084
9/7/1990,2.8141079814,2.867456,2.8141079814,2.867456,188385
9/10/1990,2.8407819907,2.8941300093,2.8407819907,2.867456,1650483
9/11/1990,2.88079301887,2.88079301887,2.72074896226,2.827445,1128439
9/12/1990,2.85411900943,2.85411900943,2.78743398585,2.827445,393641
9/13/1990,2.827444,2.840781,2.774096,2.774096,475181
9/14/1990,2.77409695853,2.89413,2.77409695853,2.89413,245557
9/17/1990,2.89412997748,2.960815,2.88079297297,2.960815,1307452
9/18/1990,2.96081494468,3.21421802553,2.96081494468,3.134196,910061
9/19/1990,3.14753401709,3.14753401709,3.12086,3.12086,1903537
9/20/1990,3.1208590354,3.1208590354,3.014163,3.014163,506110
9/21/1990,2.97415197807,3.040837,2.96081497368,3.040837,611081
9/24/1990,3.04083802667,3.04083802667,2.97415298222,3.000827,132151
9/25/1990,2.98748999111,3.000827,2.98748999111,3.000827,259615
9/26/1990,3.00082601351,3.00082601351,2.9474779955,2.960815,64669
9/27/1990,2.93414101852,2.94747802315,2.880793,2.880793,85289
9/28/1990,2.88079300935,2.88079300935,2.80077098131,2.854119,191197
10/1/1990,2.84078199533,2.89413001402,2.81410798598,2.854119,533290
10/2/1990,2.867456,2.867456,2.8407819907,2.867456,84351
10/3/1990,2.854119,2.854119,2.82744499065,2.854119,30928
10/4/1990,2.854118,2.854118,2.774096,2.774096,367398
10/5/1990,2.76076102941,2.81410906863,2.72075,2.72075,644822
10/8/1990,2.7340870098,2.76076102941,2.72075,2.72075,481742
10/9/1990,2.73945714953,2.88645241121,2.73945714953,2.859726,348905
10/10/1990,2.85972645411,2.85972645411,2.75282079227,2.766184,233851
10/11/1990,2.77954741748,2.77954741748,2.73945779126,2.752821,40222
10/12/1990,2.72609379512,2.739457,2.71273059024,2.739457,104765
10/15/1990,2.73945762376,2.73945762376,2.699368,2.699368,43028
10/16/1990,2.68600441206,2.69936761809,2.659278,2.659278,179597
10/17/1990,2.659277795,2.672641,2.64591459,2.672641,13095
10/18/1990,2.659278,2.67264120603,2.659278,2.659278,132827
10/19/1990,2.65927921212,2.65927921212,2.63255278788,2.645916,43028
10/22/1990,2.65927761224,2.65927761224,2.619188,2.619188,79509
10/23/1990,2.61918838191,2.659278,2.61918838191,2.659278,20578
10/24/1990,2.67264158416,2.699368,2.67264158416,2.699368,140310
10/25/1990,2.72609414085,2.846363,2.72609414085,2.846363,131891
10/26/1990,2.83299938605,2.873089,2.83299938605,2.873089,26191
10/29/1990,2.88645220465,2.88645220465,2.873089,2.873089,18708
10/30/1990,2.85972763981,2.87309085308,2.80627478673,2.819638,34609
10/31/1990,2.83300114815,2.95327006481,2.83300114815,2.886454,428414
11/1/1990,2.886454,2.886454,2.87309078704,2.886454,190822
11/2/1990,2.88645235714,3.02008441071,2.88645235714,2.993358,549082
11/5/1990,3.02008584685,3.03344905856,2.966633,2.966633,498570
11/6/1990,2.97999584018,2.97999584018,2.926543,2.926543,10289
11/7/1990,2.92654363889,2.92654363889,2.886454,2.886454,173049
11/8/1990,2.85972736406,2.899817,2.85972736406,2.899817,43963
11/9/1990,2.88645336986,2.93990621005,2.88645336986,2.926543,464895
11/12/1990,2.89981582629,2.89981582629,2.846363,2.846363,89798
11/13/1990,2.69936761809,2.69936761809,2.659278,2.659278,243205
11/14/1990,2.67264215686,2.726095,2.65927894608,2.726095,87927
11/15/1990,2.69936820896,2.71273141791,2.67264179104,2.686005,53318
11/16/1990,2.68600479208,2.699368,2.64591516832,2.699368,351711
11/19/1990,2.69936724607,2.69936724607,2.552372,2.552372,534115
11/20/1990,2.53900962567,2.53900962567,2.43210395722,2.49892,385386
11/21/1990,2.48555617895,2.539009,2.47219297368,2.539009,38351
11/23/1990,2.539009,2.55237220526,2.539009,2.539009,21514
11/26/1990,2.55237220526,2.56573541053,2.539009,2.539009,46770
11/27/1990,2.55237342328,2.55237342328,2.51228378836,2.525647,45834
11/28/1990,2.52564641711,2.52564641711,2.48555679144,2.49892,170243
11/29/1990,2.485556,2.485556,2.485556,2.485556,43028
11/30/1990,2.45882982222,2.47219302778,2.36528738333,2.405377,275944
12/3/1990,2.39201463068,2.39201463068,2.23165610795,2.351925,428415
12/4/1990,2.3385612069,2.3385612069,2.28510837931,2.325198,269396
12/5/1990,2.32519816854,2.39201420787,2.32519816854,2.378651,505118
12/6/1990,2.37865142045,2.40537784091,2.33856178977,2.351925,290910
12/7/1990,2.325198,2.325198,2.24501875862,2.325198,301200
12/10/1990,2.3385612069,2.3385612069,2.3118347931,2.325198,209530
12/11/1990,2.31183557714,2.37865163429,2.31183557714,2.338562,1147740
12/12/1990,2.35192458427,2.378651,2.3385613764,2.378651,577144
12/13/1990,2.35192441379,2.35192441379,2.325198,2.325198,1061683
12/14/1990,2.32519816854,2.378651,2.27174533708,2.378651,242269
12/17/1990,2.39201484571,2.41874126857,2.338562,2.338562,104765
12/18/1990,2.36528783237,2.39201424855,2.311835,2.311835,179597
12/19/1990,2.3118348284,2.3385612426,2.258382,2.258382,324585
12/20/1990,2.23165562195,2.23165562195,2.17820279268,2.191566,1177673
12/21/1990,2.12474979375,2.15147620625,2.12474979375,2.138113,1145870
12/24/1990,2.13811141104,2.178201,2.13811141104,2.178201,260042
12/26/1990,2.19156647727,2.351925,2.19156647727,2.351925,109442
12/27/1990,2.35192521143,2.35192521143,2.32519878857,2.338562,59865
12/28/1990,2.32519884706,2.32519884706,2.271746,2.271746,57995
12/31/1990,2.271746,2.271746,2.16484030588,2.271746,426544
1/2/1991,2.24501942169,2.24501942169,2.218293,2.218293,42093
1/3/1991,2.21829245283,2.21829245283,2.12475,2.12475,483603
1/4/1991,2.08466150336,2.08466150336,1.991119,1.991119,253494
1/7/1991,1.96439242759,1.97775564138,1.89757635862,1.937666,700617
1/8/1991,1.92430226087,1.93766547101,1.844123,1.844123,794157
1/9/1991,1.86288611679,1.87628817518,1.836082,1.836082,666875
1/10/1991,1.82267994161,1.836082,1.79587582482,1.836082,345096
1/11/1991,1.80927760563,1.903092,1.80927760563,1.903092,324577
1/14/1991,1.91649394444,1.94329805556,1.90309188889,1.929896,201461
1/15/1991,1.92989504895,1.92989504895,1.8628848042,1.916493,108192
1/16/1991,1.91649411348,1.92989617021,1.86288588652,1.88969,58759
1/17/1991,1.87628794326,1.92989617021,1.74226737589,1.88969,1564125
1/18/1991,1.88969005714,1.90309211429,1.84948388571,1.876288,320846
1/21/1991,1.84948513235,1.84948513235,1.76907273529,1.822681,641692
1/22/1991,1.84948513235,1.86288719853,1.822681,1.822681,203326
1/23/1991,1.83608161111,1.94329805556,1.83608161111,1.929896,976529
1/24/1991,1.98350613699,2.01031027397,1.94329993151,1.956702,577336
1/25/1991,1.98350422222,2.03711244444,1.90309188889,1.929896,953211
1/28/1991,1.95669914685,1.9701011958,1.8896889021,1.916493,791856
1/29/1991,1.929896,1.94329805556,1.929896,1.929896,115653
1/30/1991,1.90309095105,1.92989504895,1.8896889021,1.916493,153894
1/31/1991,1.90309217266,1.90309217266,1.84948394245,1.862886,448625
2/1/1991,1.84948377465,1.903092,1.84948377465,1.903092,1013836
2/4/1991,1.90309188889,1.95670011111,1.88968983333,1.929896,1121096
2/5/1991,1.92989786301,2.03711441096,1.92989786301,1.956702,1419556
2/6/1991,1.95670026415,2.1443290566,1.95670026415,2.130927,1383183
2/7/1991,2.18453547674,2.38556634884,2.18453547674,2.305154,1427019
2/8/1991,2.27834894737,2.30515305263,2.26494689474,2.291751,110057
2/11/1991,2.3051539422,2.35876217341,2.26494776879,2.318556,358153
2/12/1991,2.34536054217,2.34536054217,2.224742,2.224742,251826
2/13/1991,2.25154571098,2.318556,2.25154571098,2.318556,53163
2/14/1991,2.30515361491,2.30515361491,2.157731,2.157731,173480
2/15/1991,2.13092847305,2.238145,2.13092847305,2.238145,415980
2/19/1991,2.22474218405,2.22474218405,2.1577318773,2.184536,187471
2/20/1991,2.18453473214,2.251545,2.157730625,2.251545,255557
2/21/1991,2.23814406024,2.25154612048,2.224742,2.224742,219182
2/22/1991,2.2247404586,2.2247404586,2.104122,2.104122,475673
2/25/1991,2.10412242953,2.10412242953,1.996906,1.996906,103528
2/26/1991,1.983504,1.99690605405,1.94329783784,1.983504,905644
2/27/1991,2.01030865385,2.10412305769,2.01030865385,2.090721,1800096
2/28/1991,2.11752551807,2.224742,2.10412345783,2.224742,674336
3/1/1991,2.22474218405,2.22474218405,2.17113393865,2.184536,807711
3/4/1991,2.18453581928,2.23814406024,2.18453581928,2.224742,647288
3/5/1991,2.19793793939,2.21134,2.19793793939,2.21134,487798
3/6/1991,2.18453494512,2.22474110976,2.18453494512,2.197937,210788
3/7/1991,2.19793678571,2.251545,2.19793678571,2.251545,327375
3/8/1991,2.25154484211,2.38556536842,2.22474073684,2.291751,515779
3/11/1991,2.30515289655,2.35876110345,2.30515289655,2.331957,135240
3/12/1991,2.35876223256,2.35876223256,2.305154,2.305154,190269
3/13/1991,2.2917523012,2.2917523012,2.224742,2.224742,171615
3/14/1991,2.21133905488,2.22474110976,2.18453494512,2.197937,214519
3/15/1991,2.18453473214,2.27834910714,2.18453473214,2.251545,337634
3/18/1991,2.26494782558,2.305154,2.25154576744,2.305154,158557
3/19/1991,2.27834910714,2.27834910714,2.23814294643,2.251545,200528
3/20/1991,2.25154489412,2.278349,2.25154489412,2.278349,83009
3/21/1991,2.29175177143,2.34536,2.27834971429,2.34536,381471
3/22/1991,2.34536011561,2.34536011561,2.318556,2.318556,109125
3/25/1991,2.3319580578,2.3319580578,2.26494776879,2.318556,134307
3/26/1991,2.29175105294,2.30515310588,2.25154489412,2.278349,521375
3/27/1991,2.26494824242,2.26494824242,2.21134,2.21134,100730
3/28/1991,2.2113392236,2.2247412795,2.157731,2.157731,82076
4/1/1991,2.17113225478,2.17113225478,2.104122,2.104122,149230
4/2/1991,2.11752327632,2.11752327632,2.02370895395,2.037111,428106
4/3/1991,2.02371016216,2.09072043243,1.983504,1.983504,1583712
4/4/1991,2.01030876623,2.063917,2.01030876623,2.063917,1223692
4/5/1991,2.07731877358,2.130927,2.07731877358,2.130927,85807
4/8/1991,2.11752511538,2.11752511538,2.090721,2.090721,27980
4/9/1991,2.06391688462,2.090721,2.03711276923,2.090721,231307
4/10/1991,2.08265901961,2.08265901961,2.01547647059,2.055786,230714
4/11/1991,2.069222,2.09609501299,2.02891248052,2.069222,296766
4/12/1991,2.06922197468,2.122968,2.05578546835,2.122968,463290
4/15/1991,2.14984147239,2.2035875092,2.14984147239,2.190151,300487
4/16/1991,2.17671492857,2.2707705119,2.17671492857,2.257334,544226
4/17/1991,2.27077003636,2.27077003636,2.217024,2.217024,770289
4/18/1991,2.2438974881,2.2707705119,2.2438974881,2.257334,80005
4/19/1991,2.24389701818,2.25733352727,2.20358749091,2.217024,23257
4/22/1991,2.2170245625,2.2170245625,2.1364054875,2.149842,306069
4/23/1991,2.1364054875,2.149842,2.1095324625,2.149842,80936
4/24/1991,2.149842,2.149842,2.122968975,2.149842,52096
4/25/1991,2.13640450633,2.13640450633,2.122968,2.122968,81866
4/26/1991,2.10953150641,2.10953150641,2.08265849359,2.096095,27909
4/29/1991,2.08265853333,2.08265853333,2.015476,2.015476,434450
4/30/1991,2.04235,2.04235,2.00204046053,2.04235,1191715
5/1/1991,2.04234947097,2.082659,2.01547645161,2.082659,468871
5/2/1991,2.06922302632,2.06922302632,2.04235,2.04235,830758
5/3/1991,2.0692225098,2.09609552941,2.02891298039,2.055786,539574
5/6/1991,2.04234850331,2.04234850331,2.028912,2.028912,13024
5/7/1991,2.04234901333,2.04234901333,1.96172997333,2.015476,419565
5/8/1991,2.01547596154,2.10953150641,2.00203945513,2.096095,659583
5/9/1991,2.10953149367,2.122968,2.06922197468,2.122968,174896
5/10/1991,2.10953256579,2.10953256579,2.04235,2.04235,103263
5/13/1991,2.0289115,2.0289115,1.961729,1.961729,1014028
5/14/1991,1.96172998649,2.04234902703,1.96172998649,1.988603,426078
5/15/1991,1.98860345098,2.0692225098,1.98860345098,2.055786,320953
5/16/1991,2.10953201935,2.12296852903,2.082659,2.082659,469802
5/17/1991,2.08265850649,2.08265850649,2.05578549351,2.069222,29769
5/20/1991,2.069222,2.09609501299,2.05578549351,2.069222,141405
5/21/1991,2.09609605263,2.09609605263,2.01547697368,2.04235,559110
5/22/1991,2.0423494902,2.055786,2.0423494902,2.055786,36281
5/23/1991,2.069222,2.08265850649,2.04234898701,2.069222,280020
5/24/1991,2.08265901961,2.10953203922,2.0423494902,2.055786,186990
5/28/1991,2.04234897436,2.10953150641,2.04234897436,2.096095,69772
5/29/1991,2.096095,2.096095,2.08265849359,2.096095,388865
5/30/1991,2.09609595,2.149842,2.0826594375,2.149842,606556
5/31/1991,2.17671492857,2.257334,2.17671492857,2.257334,1874556
6/3/1991,2.28420702381,2.31108004762,2.2438974881,2.257334,297696
6/4/1991,2.28420702381,2.29764353571,2.257334,2.257334,1480108
6/5/1991,2.25733352727,2.25733352727,2.217024,2.217024,164663
6/6/1991,2.20358698795,2.24389650602,2.20358698795,2.23046,234435
6/7/1991,2.23046002469,2.23046002469,2.176714,2.176714,550738
6/10/1991,2.19015050617,2.20358701235,2.176714,2.176714,195363
6/11/1991,2.176715025,2.176715025,2.09609595,2.149842,180478
6/12/1991,2.149842,2.149842,2.1364054875,2.149842,59539
6/13/1991,2.14984150943,2.14984150943,2.136405,2.136405,1860
6/14/1991,2.122968,2.122968,2.122968,2.122968,96751
6/17/1991,2.12296850955,2.12296850955,2.109532,2.109532,25118
6/18/1991,2.122968,2.122968,2.09609498734,2.122968,397238
6/19/1991,2.122968975,2.149842,2.122968975,2.149842,198154
6/20/1991,2.09609605263,2.09609605263,2.04235,2.04235,35351
6/21/1991,2.015476,2.04234901333,1.98860298667,2.015476,292114
6/24/1991,2.02891348684,2.04235,1.98860394737,2.04235,145126
6/25/1991,2.04234850331,2.04234850331,2.028912,2.028912,45584
6/26/1991,2.00203950676,2.02891252027,1.97516649324,1.988603,218620
6/27/1991,1.988603,2.01547601351,1.96172998649,1.988603,303278
6/28/1991,1.98860302778,1.98860302778,1.934857,1.934857,486547
7/1/1991,1.93485855319,1.93485855319,1.894549,1.894549,219550
7/2/1991,1.90798448951,1.93485751049,1.90798448951,1.921421,147917
7/3/1991,1.89454747917,1.96173001389,1.89454747917,1.934857,310720
7/5/1991,1.934857,1.934857,1.934857,1.934857,3721
7/8/1991,1.9348564898,1.975166,1.9348564898,1.975166,224202
7/9/1991,1.96708417931,1.99403053793,1.92666464138,1.953611,416568
7/10/1991,1.94013516084,1.94013516084,1.926662,1.926662,64943
7/11/1991,1.94013632432,2.00750216892,1.94013632432,1.994029,177204
7/12/1991,2.0209755102,2.03444868027,1.96708282993,1.980556,1189400
7/15/1991,2.00750346711,2.047923,2.00750346711,2.047923,917563
7/16/1991,2.03444930323,2.088342,2.02097612903,2.088342,1397220
7/17/1991,2.11528842771,2.236547,2.10181525301,2.236547,1220016
7/18/1991,2.26349347368,2.303913,2.26349347368,2.303913,353480
7/19/1991,2.3039115,2.3039115,2.25001883333,2.263492,85354
7/22/1991,2.2634933494,2.2634933494,2.2096006506,2.236547,83499
7/23/1991,2.25001832727,2.26349149091,2.223072,2.223072,143804
7/24/1991,2.223072,2.23654516364,2.223072,2.223072,45460
7/25/1991,2.209601,2.22307417683,2.209601,2.209601,269980
7/26/1991,2.2096006506,2.236547,2.2096006506,2.236547,262558
7/29/1991,2.25002,2.25002,2.23654682635,2.25002,7422
7/30/1991,2.23654566667,2.29043833333,2.23654566667,2.263492,675416
7/31/1991,2.20959933333,2.2230725,2.182653,2.182653,809943
8/1/1991,2.18265464634,2.22307417683,2.18265464634,2.209601,288536
8/2/1991,2.196127,2.196127,2.196127,2.196127,82571
8/5/1991,2.209601,2.22307417683,2.19612782317,2.209601,112260
8/6/1991,2.2096006506,2.2634933494,2.2096006506,2.236547,530684
8/7/1991,2.23654566667,2.263492,2.23654566667,2.263492,850765
8/8/1991,2.276967,2.31738653254,2.26349382249,2.276967,479656
8/9/1991,2.26349265882,2.290439,2.26349265882,2.290439,128959
8/12/1991,2.31738534118,2.33085851176,2.27696582941,2.290439,258847
8/13/1991,2.27696549419,2.317385,2.27696549419,2.317385,137309
8/14/1991,2.30391311932,2.371279,2.30391311932,2.371279,431412
8/15/1991,2.371279,2.371279,2.34433264773,2.371279,428629
8/16/1991,2.35780433526,2.35780433526,2.330858,2.330858,568722
8/19/1991,2.30391269461,2.30391269461,2.25002,2.25002,105765
8/20/1991,2.25001883333,2.263492,2.25001883333,2.263492,25977
8/21/1991,2.263492,2.263492,2.25001883333,2.263492,90921
8/22/1991,2.2769665241,2.2769665241,2.2096006506,2.236547,339563
8/23/1991,2.23654723864,2.371279,2.23654723864,2.371279,1305371
8/26/1991,2.371279,2.39822535227,2.35780582386,2.371279,212459
8/27/1991,2.37127831111,2.45211734444,2.37127831111,2.425171,420279
8/28/1991,2.45211697872,2.54642917021,2.43864380851,2.532956,235653
8/29/1991,2.51948266138,2.58684850794,2.51948266138,2.546429,483368
8/30/1991,2.55990251337,2.55990251337,2.50600982888,2.519483,274619
9/3/1991,2.4925372191,2.4925372191,2.398225,2.398225,267197
9/4/1991,2.384751,2.42517050847,2.37127783051,2.384751,203181
9/5/1991,2.41169782778,2.43864417222,2.41169782778,2.425171,359046
9/6/1991,2.42517082873,2.438644,2.39822448619,2.438644,64016
9/9/1991,2.42516967033,2.452116,2.42516967033,2.452116,9277
9/10/1991,2.43864283516,2.452116,2.42516967033,2.452116,525117
9/11/1991,2.43864283516,2.452116,2.42516967033,2.452116,168854
9/12/1991,2.46558916484,2.46558916484,2.452116,2.452116,55666
9/13/1991,2.47906232967,2.47906232967,2.43864283516,2.452116,424918
9/16/1991,2.46558916484,2.46558916484,2.43864283516,2.452116,502851
9/17/1991,2.4521164973,2.492536,2.4521164973,2.492536,752421
9/18/1991,2.50600965957,2.532956,2.50600965957,2.532956,158648
9/19/1991,2.54642817526,2.613794,2.51948184536,2.613794,178131
9/20/1991,2.65421349485,2.65421349485,2.5868476701,2.613794,361830
9/23/1991,2.64074204211,2.64074204211,2.559903,2.559903,131743
9/24/1991,2.55990201087,2.55990201087,2.479063,2.479063,89993
9/25/1991,2.49253616848,2.49253616848,2.479063,2.479063,8349
9/26/1991,2.50600949206,2.546429,2.47906315344,2.546429,343274
9/27/1991,2.559903,2.58684934737,2.54642982632,2.559903,81643
9/30/1991,2.54642866492,2.573375,2.54642866492,2.573375,266269
10/1/1991,2.57337535519,2.58684852459,2.46559,2.46559,1528036
10/2/1991,2.45211829032,2.53295735484,2.45211829032,2.506011,859114
10/3/1991,2.50600916757,2.50600916757,2.492536,2.492536,123393
10/4/1991,2.47906283243,2.492536,2.46558966486,2.492536,694899
10/7/1991,2.47906331915,2.532956,2.46559014894,2.532956,1129095
10/8/1991,2.538357,2.55185889894,2.51135320213,2.538357,850806
10/9/1991,2.5383567957,2.5383567957,2.511353,2.511353,49992
10/10/1991,2.511353,2.52485489785,2.4843492043,2.511353,166643
10/11/1991,2.524856,2.524856,2.51135409626,2.524856,26848
10/14/1991,2.53835818947,2.57886390526,2.53835818947,2.565362,37031
10/15/1991,2.57886319689,2.605867,2.57886319689,2.605867,210155
10/16/1991,2.6328696875,2.65987347917,2.592364,2.592364,120353
10/17/1991,2.59236321649,2.619367,2.57886132474,2.619367,103689
10/18/1991,2.6328696875,2.6328696875,2.592364,2.592364,100911
10/21/1991,2.578863,2.578863,2.578863,2.578863,3703
10/22/1991,2.5518584837,2.5518584837,2.484349,2.484349,573067
10/23/1991,2.55185961081,2.55185961081,2.497852,2.497852,110169
10/24/1991,2.48434879121,2.48434879121,2.457345,2.457345,40735
10/25/1991,2.43034067797,2.43034067797,2.37633310734,2.389835,321251
10/28/1991,2.37633362637,2.457345,2.37633362637,2.457345,210155
10/29/1991,2.47084635593,2.47084635593,2.37633310734,2.389835,468452
10/30/1991,2.40333710615,2.416839,2.40333710615,2.416839,14812
10/31/1991,2.43034120879,2.457345,2.41683931319,2.457345,43512
11/1/1991,2.47084750532,2.538357,2.45734560638,2.538357,72212
11/4/1991,2.52485375773,2.65987267526,2.52485375773,2.619367,723046
11/5/1991,2.63287040201,2.71388179899,2.63287040201,2.686878,487894
11/6/1991,2.71388024227,2.71388024227,2.619367,2.619367,263851
11/7/1991,2.63286889175,2.63286889175,2.59236321649,2.619367,238855
11/8/1991,2.60586532143,2.646371,2.60586532143,2.646371,112021
11/11/1991,2.64637078351,2.64637078351,2.619367,2.619367,23144
11/12/1991,2.59236321649,2.63286889175,2.59236321649,2.619367,82395
11/13/1991,2.61936763,2.713880895,2.61936763,2.700379,147201
11/14/1991,2.70037835052,2.70037835052,2.60586510825,2.619367,118501
11/15/1991,2.60586649468,2.60586649468,2.49785130319,2.538357,163865
11/18/1991,2.53835658696,2.53835658696,2.484349,2.484349,274035
11/19/1991,2.49784944444,2.49784944444,2.43034,2.43034,165717
11/20/1991,2.41683889326,2.41683889326,2.403337,2.403337,166643
11/21/1991,2.40333710615,2.45734468156,2.40333710615,2.416839,234226
11/22/1991,2.40333779545,2.40333779545,2.376334,2.376334,112947
11/25/1991,2.37633310734,2.389835,2.37633310734,2.389835,19441
11/26/1991,2.37633314286,2.37633314286,2.25481610714,2.268318,400869
11/27/1991,2.28181989286,2.29532178571,2.268318,2.268318,88876
11/29/1991,2.28182010588,2.295322,2.28182010588,2.295322,33328
12/2/1991,2.29532361446,2.30882551807,2.241316,2.241316,346247
12/3/1991,2.24131442353,2.295322,2.24131442353,2.295322,112947
12/4/1991,2.29532178571,2.29532178571,2.268318,2.268318,24070
12/5/1991,2.26831910059,2.32232669822,2.26831910059,2.281821,112021
12/6/1991,2.281821,2.29532289941,2.281821,2.281821,993378
12/9/1991,2.26831980723,2.26831980723,2.241316,2.241316,66657
12/10/1991,2.214310575,2.214310575,2.14680110625,2.160303,198120
12/11/1991,2.17380520859,2.21431089571,2.11979762577,2.200809,480488
12/12/1991,2.17380510494,2.187307,2.17380510494,2.187307,143498
12/13/1991,2.1873067875,2.1873067875,2.160303,2.160303,369392
12/16/1991,2.16030310559,2.173805,2.14680121118,2.173805,431420
12/17/1991,2.17380510494,2.187307,2.17380510494,2.187307,790629
12/18/1991,2.20080920606,2.227813,2.20080920606,2.227813,130537
12/19/1991,2.21431089571,2.21431089571,2.18730710429,2.200809,454565
12/20/1991,2.18730689441,2.18730689441,2.16030310559,2.173805,190713
12/23/1991,2.16030451613,2.16030451613,2.092795,2.092795,1290558
12/24/1991,2.09279363354,2.173805,2.07929173913,2.173805,124056
12/26/1991,2.160303,2.17380489375,2.160303,2.160303,17590
12/27/1991,2.16030278481,2.16030278481,2.133299,2.133299,55547
12/30/1991,2.13329979487,2.13329979487,2.09279410256,2.106296,1065590
12/31/1991,2.106296,2.14680169231,2.09279410256,2.106296,134240
1/2/1992,2.09279379085,2.09279379085,2.06579,2.06579,847103
1/3/1992,2.06579090132,2.06579090132,2.052289,2.052289,321251
1/6/1992,2.06578957047,2.06578957047,1.99828010738,2.011782,611025
1/7/1992,1.99827979562,1.99827979562,1.849759,1.849759,675831
1/8/1992,1.836259,1.90376852206,1.82275709559,1.836259,801738
1/9/1992,1.83625830216,1.876764,1.82275640288,1.876764,402721
1/10/1992,1.86326152448,1.930771,1.84975962937,1.930771,973011
1/13/1992,1.93077043537,2.01178178231,1.93077043537,1.984778,527703
1/14/1992,1.98477950704,1.99828140845,1.91727,1.91727,325880
1/15/1992,1.93077130822,1.98477889726,1.93077130822,1.971277,436975
1/16/1992,1.97127632215,2.011782,1.97127632215,2.011782,93505
1/17/1992,2.0387873871,2.092795,2.0387873871,2.092795,54621
1/20/1992,2.09279363354,2.18730689441,2.09279363354,2.173805,105540
1/21/1992,2.18730689441,2.20080878882,2.173805,2.173805,669350
1/22/1992,2.17380579874,2.17380579874,2.146802,2.146802,347173
1/23/1992,2.13329889172,2.16030267516,2.119797,2.119797,362912
1/24/1992,2.11979808784,2.11979808784,1.998281,1.998281,1278523
1/27/1992,1.98477777931,1.98477777931,1.94427211034,1.957774,338841
1/28/1992,1.95777446429,1.95777446429,1.890265,1.890265,3167148
1/29/1992,1.903768,1.94427370213,1.86326229787,1.903768,536035
1/30/1992,1.84975932143,1.91726878571,1.84975932143,1.890265,469378
1/31/1992,1.9037673125,1.9847786875,1.89026541667,1.944273,826735
2/3/1992,1.95777479021,1.95777479021,1.9172691049,1.930771,112021
2/4/1992,1.91726990071,1.93077180142,1.89026609929,1.903768,411053
2/5/1992,1.90376779856,1.90376779856,1.86326210072,1.876764,698975
2/6/1992,1.89026537313,1.89026537313,1.809254,1.809254,570290
2/7/1992,1.79575288732,1.91727,1.79575288732,1.91727,814700
2/10/1992,1.9307706443,2.02528389262,1.9307706443,2.011782,905428
2/11/1992,2.01178289865,2.0252847973,1.998281,1.998281,279590
2/12/1992,1.998281,2.01178289865,1.9712772027,1.998281,516594
2/13/1992,1.99827989116,1.99827989116,1.984778,1.984778,187010
2/14/1992,1.98477821477,2.011782,1.97127632215,2.011782,220339
2/18/1992,1.99827989116,1.99827989116,1.97127610884,1.984778,584177
2/19/1992,1.97127588966,1.97127588966,1.957774,1.957774,24070
2/20/1992,1.95777421769,1.984778,1.95777421769,1.984778,301809
2/21/1992,1.98477910135,2.01178289865,1.98477910135,1.998281,360134
2/24/1992,2.01178289865,2.0252847973,1.998281,1.998281,288848
2/25/1992,1.99828079452,1.99828079452,1.971277,1.971277,166643
2/26/1992,1.957774,1.957774,1.94427211034,1.957774,966531
2/27/1992,1.94427211034,1.98477777931,1.94427211034,1.957774,77766
2/28/1992,1.930771,1.95777479021,1.930771,1.930771,372169
3/2/1992,1.944273,1.9847786875,1.944273,1.944273,681385
3/3/1992,1.95777489583,1.97127679167,1.944273,1.944273,704530
3/4/1992,1.93077110417,1.944273,1.93077110417,1.944273,564735
3/5/1992,1.95777510274,1.971277,1.95777510274,1.971277,702679
3/6/1992,1.971277,1.98477889726,1.971277,1.971277,468452
3/9/1992,1.97127632215,2.011782,1.97127632215,2.011782,402721
3/10/1992,2.0117824183,2.07929189542,2.0117824183,2.06579,402721
3/11/1992,2.079292,2.079292,2.0657901039,2.079292,435124
3/12/1992,2.10629579221,2.10629579221,2.079292,2.079292,401795
3/13/1992,2.10629521519,2.133299,2.09279332278,2.133299,160162
3/16/1992,2.16030337662,2.16030337662,2.079292,2.079292,141646
3/17/1992,2.106296,2.106296,2.09279410256,2.106296,659166
3/18/1992,2.0927938961,2.0927938961,2.079292,2.079292,53696
3/19/1992,2.10629579221,2.10629579221,2.05228820779,2.079292,456417
3/20/1992,2.133299,2.14680089241,2.11979710759,2.133299,268480
3/23/1992,2.160303,2.20080868125,2.160303,2.160303,631392
3/24/1992,2.16030341463,2.22781289634,2.16030341463,2.214311,715640
3/25/1992,2.227813,2.227813,2.21431110303,2.227813,135166
3/26/1992,2.25481749419,2.36283270349,2.25481749419,2.322327,1110028
3/27/1992,2.268318,2.29532178571,2.25481610714,2.268318,274035
3/30/1992,2.268318,2.268318,2.25481610714,2.268318,375873
3/31/1992,2.28182010588,2.295322,2.28182010588,2.295322,355505
4/1/1992,2.29532269461,2.29532269461,2.254817,2.254817,199971
4/2/1992,2.25481790361,2.25481790361,2.22781409639,2.241316,1016523
4/3/1992,2.214311,2.214311,2.20080910366,2.214311,126834
4/6/1992,2.22781302857,2.362832,2.22781302857,2.362832,388834
4/7/1992,2.36283270349,2.36283270349,2.322327,2.322327,708233
4/8/1992,2.30882367857,2.30882367857,2.268318,2.268318,892467
4/9/1992,2.26019792614,2.382005,2.26019792614,2.382005,196725
4/10/1992,2.368473,2.38200713143,2.368473,2.368473,246598
4/13/1992,2.39554,2.40907412429,2.38200587571,2.39554,163475
4/14/1992,2.40907375556,2.436142,2.40907375556,2.436142,263223
4/15/1992,2.43614187845,2.449676,2.43614187845,2.449676,360200
4/16/1992,2.436142,2.44967612222,2.436142,2.436142,45255
4/20/1992,2.43614237838,2.503813,2.43614237838,2.503813,283542
4/21/1992,2.53088011828,2.53088011828,2.49027776344,2.517346,389755
4/22/1992,2.50381211957,2.50381211957,2.490278,2.490278,10159
4/23/1992,2.490278,2.58501683696,2.46320976087,2.490278,1577494
4/24/1992,2.62562025,2.747427375,2.598552,2.598552,793364
4/27/1992,2.65268812308,2.67975636923,2.62561987692,2.639154,590174
4/28/1992,2.63915412371,2.63915412371,2.61208587629,2.62562,270612
4/29/1992,2.63915412371,2.63915412371,2.62562,2.62562,274306
4/30/1992,2.639154,2.65268812308,2.62561987692,2.639154,1164648
5/1/1992,2.62561987692,2.639154,2.62561987692,2.639154,169017
5/4/1992,2.652687,2.66622111735,2.652687,2.652687,290007
5/5/1992,2.63915375635,2.666222,2.63915375635,2.666222,614188
5/6/1992,2.66622147668,2.66622147668,2.612085,2.612085,915279
5/7/1992,2.61208536316,2.61208536316,2.571483,2.571483,71116
5/8/1992,2.59855136508,2.59855136508,2.54441487831,2.557949,48950
5/11/1992,2.55794835484,2.55794835484,2.517346,2.517346,105289
5/12/1992,2.53088098324,2.53088098324,2.38200563128,2.422608,1375227
5/13/1992,2.42260824859,2.42260824859,2.39554,2.39554,302014
5/14/1992,2.39553842308,2.463209,2.32786784615,2.463209,1427873
5/15/1992,2.4496765027,2.51734712432,2.43614237838,2.503813,588327
5/18/1992,2.51734725,2.612086125,2.51734725,2.598552,497815
5/19/1992,2.59855163077,2.639154,2.55794926154,2.639154,660367
5/20/1992,2.65268874747,2.679757,2.65268874747,2.679757,231821
5/21/1992,2.66622287374,2.73389350505,2.66622287374,2.679757,1092608
5/22/1992,2.67975662687,2.73389312438,2.66622250249,2.720359,265994
5/26/1992,2.72035863235,2.760961,2.7068245098,2.760961,1501759
5/27/1992,2.774495625,2.815098,2.706825,2.706825,1295798
5/28/1992,2.720359125,2.720359125,2.666222625,2.706825,724095
5/29/1992,2.70682525253,2.70682525253,2.66622287374,2.679757,425775
6/1/1992,2.66622226108,2.747427,2.66622226108,2.747427,402685
6/2/1992,2.720359,2.73389312438,2.70682487562,2.720359,124684
6/3/1992,2.733893,2.76096124752,2.70682475248,2.733893,1475899
6/4/1992,2.70682487562,2.720359,2.70682487562,2.720359,1350290
6/5/1992,2.7338927549,2.760961,2.72035863235,2.760961,942986
6/8/1992,2.78802926415,2.92337049057,2.78802926415,2.869234,2103941
6/9/1992,2.869234,2.89630224528,2.84216575472,2.869234,2398567
6/10/1992,2.86923525714,2.86923525714,2.78803048571,2.842167,898654
6/11/1992,2.84216504587,2.950438,2.84216504587,2.950438,506128
6/12/1992,2.92337024299,2.92337024299,2.896302,2.896302,2357929
6/15/1992,2.88276812264,2.88276812264,2.85569987736,2.869234,2815106
6/16/1992,2.88276723697,2.88276723697,2.855699,2.855699,762886
6/17/1992,2.86923462802,2.86923462802,2.7880298744,2.801564,777663
6/18/1992,2.7880298744,2.82863225121,2.7880298744,2.801564,1095379
6/19/1992,2.8150981256,2.82863225121,2.801564,2.801564,482114
6/22/1992,2.774496,2.78803012683,2.774496,2.774496,655749
6/23/1992,2.774496,2.78803012683,2.774496,2.774496,598487
6/24/1992,2.788029,2.788029,2.74742663592,2.788029,258605
6/25/1992,2.78802975,2.78802975,2.706825,2.706825,354659
6/26/1992,2.70682487562,2.720359,2.69329075124,2.720359,726866
6/29/1992,2.70682463054,2.76096112315,2.70682463054,2.747427,1350290
6/30/1992,2.760961,2.760961,2.7338927549,2.760961,1335513
7/1/1992,2.78802975,2.815098,2.774495625,2.815098,801677
7/2/1992,2.842167,2.85570112857,2.81509874286,2.842167,2317289
7/6/1992,2.869234,2.88276812264,2.85569987736,2.869234,890342
7/7/1992,2.86923487324,2.90983725352,2.86923487324,2.882769,756421
7/8/1992,2.882769,2.89630312676,2.86923487324,2.882769,555078
7/9/1992,2.9017504186,2.9288695814,2.88819083721,2.91531,488584
7/10/1992,2.94242932864,2.94242932864,2.888191,2.888191,655440
7/13/1992,2.88819083721,2.91531,2.88819083721,2.91531,719970
7/14/1992,2.94243092576,3.14582476856,2.94243092576,3.105146,722735
7/15/1992,3.11870433628,3.13226392035,3.05090641593,3.064466,536520
7/16/1992,3.03734692237,3.03734692237,2.94242983105,2.969549,165012
7/17/1992,2.983109,2.99666858636,2.96954941364,2.983109,52545
7/20/1992,2.98310875576,2.99666834101,2.94243,2.94243,743938
7/21/1992,2.94243041284,2.96954958716,2.94243041284,2.95599,258119
7/22/1992,2.9559890852,3.023787,2.9559890852,3.023787,271026
7/23/1992,3.037347,3.05090658482,3.01022783036,3.037347,129059
7/24/1992,3.03734690909,3.132264,3.03734690909,3.132264,379805
7/27/1992,3.13226358261,3.13226358261,3.09158483478,3.118704,76514
7/28/1992,3.11870517544,3.11870517544,3.06446682456,3.091586,105091
7/29/1992,3.09158641048,3.105146,3.07802682096,3.105146,97716
7/30/1992,3.09158508155,3.159383,3.09158508155,3.159383,651753
7/31/1992,3.159383,3.17294258369,3.14582341631,3.159383,577082
8/3/1992,3.14582406751,3.213622,3.14582406751,3.213622,566942
8/4/1992,3.20006084034,3.22718,3.20006084034,3.22718,459085
8/5/1992,3.11870504587,3.11870504587,2.92887082569,2.95599,309743
8/6/1992,2.820394,2.83395358654,2.75259606731,2.820394,1344067
8/7/1992,2.82039402667,3.050907,2.82039402667,3.050907,1147711
8/10/1992,3.050905837,3.0915845815,3.03734625551,3.078025,101404
8/11/1992,3.078025,3.0915845815,3.078025,3.078025,3005254
8/12/1992,3.09158483478,3.118704,3.09158483478,3.118704,106935
8/13/1992,3.14582487029,3.240742,3.13226528033,3.240742,789109
8/14/1992,3.281420175,3.335658525,3.2407414125,3.254301,1548719
8/17/1992,3.22718217797,3.22718217797,3.18650341102,3.200063,1726637
8/18/1992,3.18650191304,3.20006149565,3.10514441739,3.118704,948591
8/19/1992,3.03734764912,3.20006270175,3.03734764912,3.091586,973480
8/20/1992,3.14582316522,3.15938274783,3.09158483478,3.118704,8770550
8/21/1992,3.13226358261,3.15938274783,3.118704,3.118704,1879667
8/24/1992,3.105146,3.13226517904,3.105146,3.105146,1627077
8/25/1992,3.10514645106,3.22718277447,3.10514645106,3.186504,1155086
8/26/1992,3.20006265,3.254301,3.20006265,3.254301,2290814
8/27/1992,3.24074025207,3.29497858264,3.22718066942,3.281419,1005746
8/28/1992,3.30853736508,3.417014,3.30853736508,3.417014,1996743
8/31/1992,3.38989616935,3.45769409274,3.33565783065,3.362777,1604953
9/1/1992,3.362777824,3.417016176,3.349218236,3.389897,852717
9/2/1992,3.41701575904,3.43057534538,3.36277741365,3.376337,528224
9/3/1992,3.38989741036,3.403457,3.37633782072,3.403457,711673
9/4/1992,3.40345583004,3.44413458498,3.40345583004,3.430575,219401
9/8/1992,3.43057531034,3.55261158621,3.43057531034,3.539052,1325630
9/9/1992,3.53905141603,3.552611,3.52549183206,3.552611,760532
9/10/1992,3.55261158621,3.56617117241,3.52549241379,3.539052,932919
9/11/1992,3.5390508365,3.56617,3.52549125475,3.56617,633315
9/14/1992,3.59328958333,3.62040875,3.56617041667,3.57973,788187
9/15/1992,3.57972958175,3.5932891635,3.56617,3.56617,642534
9/16/1992,3.56617041667,3.62040875,3.55261083333,3.57973,833358
9/17/1992,3.57973048889,3.71532634074,3.57973048889,3.661088,651752
9/18/1992,3.63397027536,3.742447,3.63397027536,3.742447,769750
9/21/1992,3.75600541367,3.769565,3.75600541367,3.769565,931075
9/22/1992,3.74244623656,3.79668458781,3.72888664875,3.783125,763297
9/23/1992,3.796683,3.87804049286,3.78312341786,3.796683,1035245
9/24/1992,3.8102420979,3.89159958042,3.8102420979,3.87804,1448238
9/25/1992,3.83736347059,3.85092305882,3.64752923529,3.688208,2117505
9/28/1992,3.68820666667,3.68820666667,3.56617041667,3.57973,2016101
9/29/1992,3.64752783395,3.674647,3.6204086679,3.674647,318962
9/30/1992,3.66108733083,3.67464691353,3.606849,3.606849,380727
10/1/1992,3.5932900969,3.5932900969,3.498373,3.498373,436038
10/2/1992,3.511932,3.53905116602,3.48481283398,3.511932,890514
10/5/1992,3.51193293307,3.51193293307,3.43057541339,3.444135,359524
10/6/1992,3.44413315873,3.44413315873,3.38989484127,3.417014,1020496
10/7/1992,3.43057582353,3.48481417647,3.43057582353,3.457695,748547
10/8/1992,3.44954621875,3.5310315625,3.44954621875,3.476708,306496
10/9/1992,3.44954577778,3.50386933333,3.39522222222,3.422384,128857
10/12/1992,3.42238510672,3.435966,3.42238510672,3.435966,404060
10/13/1992,3.422384,3.43596488889,3.38164133333,3.422384,474011
10/14/1992,3.422384,3.43596488889,3.40880311111,3.422384,393015
10/15/1992,3.422382768,3.422382768,3.395221,3.395221,236545
10/16/1992,3.40880300385,3.54461188846,3.40880300385,3.531031,1324471
10/19/1992,3.53103153285,3.74832578102,3.53103153285,3.721164,869788
10/20/1992,3.70758266667,3.70758266667,3.65325911111,3.66684,241147
10/21/1992,3.65325765038,3.65325765038,3.59893411654,3.612515,120573
10/22/1992,3.59893671937,3.59893671937,3.435966,3.435966,420627
10/23/1992,3.44954689328,3.44954689328,3.42238510672,3.435966,116892
10/26/1992,3.43596532812,3.49028889063,3.43596532812,3.476708,456523
10/27/1992,3.46312609312,3.46312609312,3.31373634008,3.354479,366323
10/28/1992,3.35447877143,3.35447877143,3.2322508,3.327317,1059393
10/29/1992,3.32731810976,3.39522256098,3.32731810976,3.340899,400378
10/30/1992,3.36806055738,3.36806055738,3.313737,3.313737,164753
11/2/1992,3.32731931452,3.368062,3.32731931452,3.368062,180400
11/3/1992,3.36806113333,3.36806113333,3.259414,3.259414,341472
11/4/1992,3.27299525214,3.2865761453,3.177929,3.177929,533838
11/5/1992,3.15076599103,3.15076599103,3.01495711211,3.028538,1433080
11/6/1992,3.0692818547,3.19150989316,3.0692818547,3.177929,2097616
11/9/1992,3.15076542731,3.17792719824,3.04211834361,3.082861,1521439
11/10/1992,3.09644244828,3.150766,3.09644244828,3.150766,1920897
11/11/1992,3.1507665614,3.1507665614,3.096443,3.096443,634163
11/12/1992,3.15076565939,3.16434654585,3.09644211354,3.110023,1519598
11/13/1992,3.13718511207,3.16434688793,3.12360422414,3.150766,372766
11/16/1992,3.13718632051,3.177929,3.13718632051,3.177929,296372
11/17/1992,3.150766,3.16434688793,3.150766,3.150766,349756
11/18/1992,3.15076611159,3.164347,3.15076611159,3.164347,797996
11/19/1992,3.13718521875,3.16434699554,3.01495722321,3.042119,945262
11/20/1992,3.06928143478,3.123605,3.06928143478,3.123605,617595
11/23/1992,3.09644244828,3.19150866379,3.09644244828,3.150766,759339
11/24/1992,3.1371858913,3.1371858913,3.1100241087,3.123605,578938
11/25/1992,3.1100241087,3.1371858913,3.1100241087,3.123605,110449
11/27/1992,3.12360422414,3.150766,3.11002333621,3.150766,265078
11/30/1992,3.15076542731,3.15076542731,3.06928011454,3.082861,620357
12/1/1992,3.08286088496,3.08286088496,3.06928,3.06928,1284894
12/2/1992,3.06928034061,3.110023,3.06928034061,3.110023,830210
12/3/1992,3.09644312727,3.09644312727,2.97421510909,2.987796,1370491
12/4/1992,2.98779544643,3.042119,2.97421455804,3.042119,1437682
12/7/1992,3.02853811161,3.08286166518,3.02853811161,3.042119,192365
12/8/1992,3.04211888789,3.05569977578,3.00137622422,3.028538,667298
12/9/1992,3.04211823009,3.08286088496,3.02853734513,3.06928,430752
12/10/1992,3.08286046753,3.137184,3.02853693506,3.137184,1842663
12/11/1992,3.17792711489,3.21866977021,3.17792711489,3.191508,173957
12/14/1992,3.19150989316,3.19150989316,3.13718632051,3.177929,1058472
12/15/1992,3.16434688793,3.16434688793,3.13718511207,3.150766,467568
12/16/1992,3.1371858913,3.15076678261,3.123605,3.123605,462966
12/17/1992,3.13718567105,3.13718567105,3.096443,3.096443,60747
12/18/1992,3.123605,3.123605,3.1100241087,3.123605,339631
12/21/1992,3.11002277093,3.11002277093,3.082861,3.082861,561450
12/22/1992,3.09644188546,3.09644188546,3.06928011454,3.082861,1105413
12/23/1992,3.08286177778,3.08286177778,3.0557,3.0557,1159717
12/24/1992,3.08286232609,3.123605,3.06928143478,3.123605,753816
12/28/1992,3.11002277093,3.11002277093,3.06928011454,3.082861,112290
12/29/1992,3.08286210965,3.1236047807,3.0692812193,3.096443,685706
12/30/1992,3.11002277093,3.11002277093,3.082861,3.082861,735408
12/31/1992,3.09644180426,3.20508888511,3.09644180426,3.191508,432593
1/4/1993,3.20508841558,3.23225018182,3.137184,3.137184,687547
1/5/1993,3.13718555085,3.20509,3.11002377119,3.20509,822847
1/6/1993,3.20508841558,3.20508841558,3.12360311688,3.137184,1068597
1/7/1993,3.13718477293,3.13718477293,3.09644211354,3.110023,383811
1/8/1993,3.11002424324,3.11002424324,3.014958,3.014958,1861070
1/11/1993,3.03509988018,3.03509988018,2.93982768664,2.953438,471150
1/12/1993,2.95343868349,2.967049,2.92621805046,2.967049,309507
1/13/1993,2.96704775676,3.03509931081,2.92621682432,3.021489,948729
1/14/1993,2.9942688785,3.00787919159,2.912607,2.912607,710858
1/15/1993,2.93982768664,2.98065862673,2.92621737327,2.953438,1415287
1/18/1993,2.95343831481,2.95343831481,2.92621768519,2.939828,528092
1/19/1993,2.92621809955,3.03510063348,2.92621809955,3.00788,1328955
1/20/1993,3.00787868919,3.03509931081,2.99426837838,3.021489,152457
1/21/1993,2.99426973214,3.048711,2.99426973214,3.048711,313181
1/22/1993,3.06232043478,3.130372,3.04871012174,3.130372,620852
1/25/1993,3.11676180508,3.22564431356,3.11676180508,3.212034,1113126
1/26/1993,3.32091561983,3.3753568595,3.293695,3.293695,1405184
1/27/1993,3.25286568333,3.28008631667,3.22564505,3.266476,730144
1/28/1993,3.280086156,3.402579,3.26647584,3.402579,888113
1/29/1993,3.40257972441,3.4842416378,3.38896940551,3.457021,565747
2/1/1993,3.48424073846,3.55229231538,3.48424073846,3.538682,2154615
2/2/1993,3.52507303817,3.565904,3.52507303817,3.565904,1198538
2/3/1993,3.56590288727,3.79727826545,3.56590288727,3.742837,1662341
2/4/1993,3.77005875704,3.865331,3.77005875704,3.865331,1527333
2/5/1993,3.86533072222,3.93338231944,3.86533072222,3.919772,1844188
2/8/1993,3.919772,3.919772,3.89255136111,3.919772,2267580
2/9/1993,3.91977057244,3.91977057244,3.83810868551,3.851719,867907
2/10/1993,3.85171995357,3.87894058929,3.79727868214,3.810889,918420
2/11/1993,3.79727846341,3.91977131707,3.79727846341,3.906161,1114963
2/12/1993,3.906161,3.906161,3.89255068293,3.906161,1069960
2/16/1993,3.89255156115,3.89255156115,3.783669,3.783669,336141
2/17/1993,3.79727836655,3.83810931673,3.78366804982,3.824499,726470
2/18/1993,3.85172067958,3.90616196127,3.85172067958,3.865331,694326
2/19/1993,3.86533072222,3.93338231944,3.85172040278,3.919772,3913390
2/22/1993,3.91977172603,4.01504395548,3.91977172603,3.974213,1308749
2/23/1993,4.00143294845,4.00143294845,3.91977105155,3.960602,762289
2/24/1993,3.93338163415,3.93338163415,3.89255068293,3.906161,573094
2/25/1993,3.90616155197,3.90616155197,3.797279,3.797279,297568
2/26/1993,3.82449768794,3.85171831206,3.79727706383,3.838108,146947
3/1/1993,3.865331,3.94699292254,3.85172067958,3.865331,1602644
3/2/1993,3.8925513193,3.9061616386,3.8653306807,3.878941,382063
3/3/1993,3.89255066013,4.21919826797,3.89255066013,4.164757,4694049
3/4/1993,4.13753531353,4.16475594059,4.04226311881,4.123925,1048836
3/5/1993,4.11031362,4.12392393,4.083093,4.083093,384818
3/8/1993,4.09670541503,4.17836731699,4.09670541503,4.164757,541868
3/9/1993,4.17836731699,4.17836731699,4.13753636601,4.164757,371960
3/10/1993,4.16475736364,4.191978,4.12392640909,4.191978,228686
3/11/1993,4.19197741853,4.28724963259,4.17836710224,4.260029,245218
3/12/1993,4.28724856452,4.28724856452,4.17836606129,4.219197,806373
3/15/1993,4.21919737179,4.246418,4.21919737179,4.246418,240626
3/16/1993,4.232811,4.24642132476,4.21920067524,4.232811,363694
3/17/1993,4.2464187837,4.341691,4.23280846708,4.341691,157049
3/18/1993,4.32807838125,4.355299,4.28724745312,4.355299,509723
3/19/1993,4.34169232075,4.35530264151,4.328082,4.328082,345326
3/22/1993,4.341691,4.35530131661,4.32808068339,4.341691,735655
3/23/1993,4.36891296226,4.36891296226,4.328082,4.328082,115721
3/24/1993,4.328082,4.42335424528,4.328082,4.328082,659426
3/25/1993,4.27363825161,4.28724856452,4.219197,4.219197,1170987
3/26/1993,4.2192016879,4.28725332803,4.19198103185,4.273643,865151
3/29/1993,4.28724973354,4.341691,4.28724973354,4.341691,676876
3/30/1993,4.35530136646,4.382522,4.35530136646,4.382522,761370
3/31/1993,4.38252131464,4.38252131464,4.32808005607,4.368911,641057
4/1/1993,4.38251961875,4.38251961875,4.34168869062,4.355299,617179
4/2/1993,4.31447026518,4.31447026518,4.23280836741,4.260029,276444
4/5/1993,4.273643,4.273643,4.24642234395,4.273643,336141
4/6/1993,4.27363862821,4.27363862821,4.246418,4.246418,694326
4/7/1993,4.21919737179,4.246418,4.19197674359,4.246418,987302
4/8/1993,4.23932971474,4.252961,4.23932971474,4.252961,27510
4/12/1993,4.23933097484,4.33475,4.23933097484,4.33475,373222
4/13/1993,4.33474871154,4.38927385256,4.22569842949,4.252961,1234293
4/14/1993,4.26659387097,4.26659387097,4.2257,4.2257,512607
4/15/1993,4.25296215584,4.29385602273,4.198437,4.198437,265015
4/16/1993,4.21206870968,4.2257,4.18480612903,4.2257,408985
4/19/1993,4.21206714423,4.26659228526,4.21206714423,4.252961,198990
4/20/1993,4.28022455799,4.41653744201,4.28022455799,4.348381,1299400
4/21/1993,4.37564256731,4.37564256731,4.252961,4.252961,212745
4/22/1993,4.22570020067,4.22570020067,4.075756,4.075756,384226
4/23/1993,4.07575517014,4.07575517014,3.89854842361,3.925811,901418
4/26/1993,3.95307327703,4.04849228716,3.93944198986,4.034861,420906
4/27/1993,4.06212228283,4.06212228283,4.03485971717,4.048491,123796
4/28/1993,4.03485971717,4.048491,4.03485971717,4.048491,217330
4/29/1993,4.06212426316,4.143912,4.03486168421,4.143912,439246
4/30/1993,4.14391182222,4.33474986667,4.14391182222,4.293856,893165
5/3/1993,4.321117,4.34837956782,4.321117,4.321117,286106
5/4/1993,4.293856,4.32111857778,4.28022471111,4.293856,1527735
5/5/1993,4.293856,4.30748728889,4.293856,4.293856,75194
5/6/1993,4.29385969937,4.36201620253,4.29385969937,4.307491,762032
5/7/1993,4.293856,4.33474986667,4.28022471111,4.293856,213662
5/10/1993,4.30748731169,4.30748731169,4.198437,4.198437,949103
5/11/1993,4.17117799367,4.32112230063,4.17117799367,4.307491,1284727
5/12/1993,4.30748571609,4.34837956782,4.28022314826,4.321117,976613
5/13/1993,4.28022412963,4.44379957407,4.28022412963,4.416537,805133
5/14/1993,4.41653796979,4.59374474018,4.41653796979,4.511957,1067397
5/17/1993,4.51195443544,4.539217,4.49832315315,4.539217,447500
5/18/1993,4.53921828319,4.64826857227,4.53921828319,4.621006,390645
5/19/1993,4.63463946269,4.63463946269,4.52558912239,4.566483,473175
5/20/1993,4.55285170746,4.58011429254,4.55285170746,4.566483,247592
5/21/1993,4.56647928144,4.56647928144,4.53921671856,4.552848,458504
5/24/1993,4.58011429254,4.58011429254,4.55285170746,4.566483,568544
5/25/1993,4.525586,4.58011113253,4.51195471687,4.525586,459421
5/26/1993,4.52558571772,4.539217,4.49832315315,4.539217,215496
5/27/1993,4.53921800294,4.634637,4.53921800294,4.634637,585968
5/28/1993,4.62100571471,4.634637,4.60737442941,4.634637,542868
6/1/1993,4.66189886705,4.74368656647,4.64826758382,4.716424,709764
6/2/1993,4.71642610674,4.9072641573,4.71642610674,4.852739,598806
6/3/1993,4.85273785836,4.85273785836,4.78458142776,4.811844,462172
6/4/1993,4.798213,4.81184428693,4.78458171307,4.798213,1019712
6/7/1993,4.798213,4.81184428693,4.78458171307,4.798213,552955
6/8/1993,4.78458287069,4.78458287069,4.73005770977,4.743689,318201
6/9/1993,4.71642527841,4.798213,4.71642527841,4.798213,300778
6/10/1993,4.78458287069,4.78458287069,4.743689,4.743689,893165
6/11/1993,4.71642721791,4.71642721791,4.566483,4.566483,695091
6/14/1993,4.5528507378,4.5528507378,4.471063,4.471063,874825
6/15/1993,4.471063,4.49832557927,4.471063,4.471063,331039
6/16/1993,4.48469187087,4.539217,4.48469187087,4.539217,251260
6/17/1993,4.55285241071,4.64827147321,4.55285241071,4.580115,221915
6/18/1993,4.60737729377,4.62100858754,4.593746,4.593746,257679
6/21/1993,4.60737584211,4.67553228947,4.60737584211,4.661901,335624
6/22/1993,4.66190246884,4.66190246884,4.593746,4.593746,1274640
6/23/1993,4.59374342773,4.621006,4.59374342773,4.621006,2827136
6/24/1993,4.62100718598,4.62100718598,4.41653784146,4.471063,730855
6/25/1993,4.471063,4.471063,4.45743171037,4.471063,41265
6/28/1993,4.47106171429,4.484693,4.47106171429,4.484693,234754
6/29/1993,4.4574311517,4.47106243963,4.3483808483,4.402906,742776
6/30/1993,4.41653642945,4.443799,4.3892738589,4.443799,632735
7/1/1993,4.43016857585,4.43016857585,4.37564342415,4.402906,431910
7/2/1993,4.41653728793,4.41653728793,4.37564342415,4.402906,114625
7/6/1993,4.40290687188,4.44380074375,4.362013,4.362013,501603
7/7/1993,4.33474997538,4.430169,4.33474997538,4.430169,1569917
7/8/1993,4.43016701807,4.525586,4.43016701807,4.525586,1094907
7/9/1993,4.51848986607,4.586745,4.51848986607,4.586745,1547502
7/12/1993,4.61404595294,4.66865004706,4.61404595294,4.641348,1030142
7/13/1993,4.64134704142,4.64134704142,4.614045,4.614045,114460
7/14/1993,4.614045,4.64134704142,4.614045,4.614045,616254
7/15/1993,4.64134910714,4.64134910714,4.55944294643,4.586745,387333
7/16/1993,4.586745,4.60039602679,4.57309397321,4.586745,168485
7/19/1993,4.62769602071,4.62769602071,4.58674295858,4.614045,477986
7/20/1993,4.58674390588,4.641348,4.58674390588,4.641348,816788
7/21/1993,4.641348,4.66865004706,4.641348,4.641348,452347
7/22/1993,4.64135103245,4.64135103245,4.61404896755,4.6277,359862
7/23/1993,4.62769697647,4.641348,4.58674390588,4.641348,390996
7/26/1993,4.66865309735,4.66865309735,4.6277,4.6277,224342
7/27/1993,4.60039602679,4.61404705357,4.55944294643,4.586745,218848
7/28/1993,4.58674297923,4.62769604154,4.57309195846,4.600394,408394
7/29/1993,4.6003979351,4.64135103245,4.58674690265,4.6277,112628
7/30/1993,4.64134697947,4.654998,4.64134697947,4.654998,65929
8/2/1993,4.65499879429,4.777858,4.64134777143,4.777858,1178483
8/3/1993,4.79150790169,4.87341401966,4.79150790169,4.859763,407478
8/4/1993,4.84611288889,4.94167004444,4.84611288889,4.914368,457841
8/5/1993,4.90071697778,4.92801902222,4.90071697778,4.914368,64097
8/6/1993,4.91436703911,4.91436703911,4.87341398045,4.887065,399237
8/9/1993,4.90071689011,4.968972,4.90071689011,4.968972,394659
8/10/1993,4.96897191304,5.023576,4.96897191304,5.023576,724304
8/11/1993,5.0508815625,5.241996,5.0508815625,5.241996,898283
8/12/1993,5.24199197922,5.43310627013,5.22834095844,5.255643,1262726
8/13/1993,5.26929412632,5.26929412632,5.187388,5.187388,259138
8/16/1993,5.18738793734,5.228341,5.18738793734,5.228341,512782
8/17/1993,5.29660061,5.460413,5.29660061,5.460413,732545
8/18/1993,5.44675676642,5.66517307786,5.44675676642,5.610569,922092
8/19/1993,5.62422423762,5.65152629703,5.515016,5.515016,485311
8/20/1993,5.51501280387,5.637872,5.51501280387,5.637872,1046624
8/23/1993,5.65152172028,5.856287,5.63787070163,5.856287,1104313
8/24/1993,5.85628921429,5.85628921429,5.70612795238,5.73343,805800
8/25/1993,5.73342915254,5.74708017433,5.62422097821,5.637872,862572
8/26/1993,5.63787427295,5.63787427295,5.46041091811,5.501364,935827
8/27/1993,5.48771328061,5.48771328061,5.26929683163,5.351203,717894
8/30/1993,5.35120086432,5.46040904523,5.33754984171,5.433107,606181
8/31/1993,5.44675892537,5.52866507463,5.39215482587,5.487712,1016407
9/1/1993,5.48771382353,5.58327102941,5.48771382353,5.56962,445021
9/2/1993,5.56961814925,5.56961814925,5.487712,5.487712,327814
9/3/1993,5.4877129727,5.52866605459,5.4877129727,5.501364,154750
9/7/1993,5.50136430867,5.5286663648,5.351203,5.351203,271041
9/8/1993,5.35120228871,5.35120228871,5.201041,5.201041,445021
9/9/1993,5.20103897906,5.22834102094,5.17373693717,5.21469,610760
9/10/1993,5.21468997911,5.228341,5.20103895822,5.228341,139183
9/13/1993,5.22834209499,5.26929516623,5.173738,5.173738,541168
9/14/1993,5.20103902105,5.21469004211,5.16008595789,5.187388,725220
9/15/1993,5.187391875,5.28294909375,5.17374084375,5.241996,1138192
9/16/1993,5.241996,5.2692980625,5.241996,5.241996,174895
9/17/1993,5.21469004211,5.21469004211,5.14643493684,5.187388,145593
9/20/1993,5.18738795812,5.21469,5.18738795812,5.21469,283861
9/21/1993,5.21468993766,5.26929402078,5.21468993766,5.255643,249981
9/22/1993,5.24199204188,5.26929408377,5.21469,5.21469,113544
9/23/1993,5.228341,5.228341,5.20103895822,5.228341,266463
9/24/1993,5.21469,5.24199204188,5.20103897906,5.21469,409310
9/27/1993,5.20103895822,5.24199202089,5.20103895822,5.228341,505456
9/28/1993,5.22834106316,5.22834106316,5.17373697895,5.187388,373598
9/29/1993,5.18738828087,5.637872,5.18738828087,5.637872,1374439
9/30/1993,5.63787566274,5.788037,5.63787566274,5.788037,864403
10/1/1993,5.76073083256,5.869939,5.76073083256,5.869939,685846
10/4/1993,5.86994112941,5.89724318118,5.801686,5.801686,283861
10/5/1993,5.81533611876,5.81533611876,5.747081,5.747081,140099
10/6/1993,5.74708006459,5.74708006459,5.67882495694,5.706127,130942
10/7/1993,5.6788260241,5.6788260241,5.62422192771,5.665175,256391
10/8/1993,5.67173431873,5.67173431873,5.60340017032,5.617067,280789
10/11/1993,5.617069185,5.617069185,5.466734,5.466734,329264
10/12/1993,5.46673061224,5.46673061224,5.357396,5.357396,311886
10/13/1993,5.31639698172,5.3437306423,5.22072916971,5.234396,944805
10/14/1993,5.33006331606,5.35739697409,5.24806234197,5.275396,443592
10/15/1993,5.24806365957,5.24806365957,5.09772850266,5.138729,808526
10/18/1993,5.13872967391,5.13872967391,5.00206133152,5.029395,822246
10/19/1993,5.0293938445,5.1387284933,4.79705771582,5.097728,1677418
10/20/1993,5.07039371176,5.07039371176,4.646722,4.646722,1859429
10/21/1993,4.75605668182,4.97472595455,4.75605668182,4.810724,3676785
10/22/1993,4.81072362791,4.81072362791,4.701389,4.701389,1061877
10/25/1993,4.70139202367,4.7423925355,4.619391,4.619391,1030779
10/26/1993,4.61938931677,4.64672298137,4.3733863354,4.40072,1756990
10/27/1993,4.4280543253,4.537389,4.4280543253,4.537389,1618882
10/28/1993,4.53738787393,4.769724,4.53738787393,4.769724,1389312
10/29/1993,4.74239218129,4.78339269006,4.66039116374,4.674058,471945
11/1/1993,4.68772301433,4.79705766189,4.67405618338,4.769724,433531
11/2/1993,4.7697222191,4.87905682584,4.7697222191,4.86539,632919
11/3/1993,4.90639316667,4.9610605,4.8790595,4.92006,618285
11/4/1993,4.94739366667,5.01572783333,4.92006,4.92006,395117
11/5/1993,4.92005730337,4.92005730337,4.83805634831,4.86539,128961
11/8/1993,4.86539097143,4.86539097143,4.78339,4.78339,236887
11/9/1993,4.78338922156,4.78338922156,4.53738634731,4.56472,620114
11/10/1993,4.5920571632,4.6193908368,4.56472348961,4.605724,218594
11/11/1993,4.61938730539,4.72872191617,4.55105317365,4.56472,645724
11/12/1993,4.551052,4.551052,4.42805059459,4.551052,1374679
11/15/1993,4.55105533131,4.57838899696,4.496388,4.496388,771941
11/16/1993,4.34605266456,4.35971949684,4.26405167089,4.318719,945720
11/17/1993,4.3733833033,4.551052,4.31871601201,4.551052,1849369
11/18/1993,4.55105304425,4.68772130383,4.51005256637,4.633054,529566
11/19/1993,4.5920571632,4.605724,4.56472348961,4.605724,97864
11/22/1993,4.59205513846,4.59205513846,4.44172,4.44172,198473
11/23/1993,4.46905483436,4.56472267485,4.44172116564,4.455388,797551
11/24/1993,4.46905350909,4.510054,4.46905350909,4.510054,636577
11/26/1993,4.48272099379,4.48272099379,4.40072,4.40072,107925
11/29/1993,4.34605248544,4.34605248544,4.223051,4.223051,1452421
11/30/1993,4.23671783172,4.25038466343,4.18205050485,4.223051,523164
12/1/1993,4.250385,4.30505233119,4.22305133441,4.250385,361276
12/2/1993,4.2367181672,4.29138549839,4.2367181672,4.250385,491152
12/3/1993,4.26405,4.29138365385,4.26405,4.26405,162802
12/6/1993,4.26405216613,4.29138583387,4.2367184984,4.277719,353044
12/7/1993,4.26405034395,4.33238448408,4.25038351592,4.291384,604566
12/8/1993,4.27771866559,4.27771866559,4.2367181672,4.250385,102437
12/9/1993,4.25038719935,4.25038719935,4.12738564052,4.182053,79572
12/10/1993,4.19571733657,4.23671783172,4.19571733657,4.223051,310057
12/13/1993,4.25038499672,4.25038499672,4.12738350164,4.168384,117071
12/14/1993,4.19571916234,4.209386,4.14105181169,4.209386,709747
12/15/1993,4.16838466997,4.16838466997,4.12738416502,4.141051,146339
12/16/1993,4.15471932026,4.23672035948,4.15471932026,4.182053,646638
12/17/1993,4.19571850658,4.20938534211,4.14105116447,4.154718,229570
12/20/1993,4.12738384083,4.12738384083,3.85404716263,3.949715,1060048
12/21/1993,3.97704884155,3.97704884155,3.73104582042,3.881381,1006085
12/22/1993,3.8950479703,4.15471783498,3.85404746535,4.141051,772856
12/23/1993,4.11371749342,4.19571850658,4.11371749342,4.154718,201217
12/27/1993,4.10004983923,4.27771866559,4.10004983923,4.250385,1211875
12/28/1993,4.27772018831,4.30505386364,4.209386,4.209386,719808
12/29/1993,4.22305133441,4.27771866559,4.22305133441,4.250385,740844
12/30/1993,4.2367181672,4.250385,4.22305133441,4.250385,309142
12/31/1993,4.25038317308,4.26405,4.22304951923,4.26405,128961
1/3/1994,4.26405,4.26405,4.22304951923,4.26405,379568
1/4/1994,4.2367184984,4.277719,4.2367184984,4.277719,231399
1/5/1994,4.34604965766,4.59205246847,4.34604965766,4.551052,914623
1/6/1994,4.57838836676,4.79705766189,4.57838836676,4.769724,1142364
1/7/1994,4.78338965517,4.78338965517,4.72872234483,4.756056,805783
1/10/1994,4.74894203324,4.940542,4.74894203324,4.940542,654880
1/11/1994,4.89948324432,4.89948324432,4.77631187784,4.817369,1174583
1/12/1994,4.81736721387,4.8447386185,4.72156729769,4.735253,337943
1/13/1994,4.73525627059,4.74894198235,4.653142,4.653142,12306630
1/14/1994,4.62576864848,4.66682576667,4.516283,4.516283,1478732
1/17/1994,4.59839787611,4.65314070796,4.57102646018,4.639455,1254045
1/18/1994,4.65313936782,4.762625,4.65313936782,4.762625,971817
1/19/1994,4.78999688385,4.91316823229,4.78999688385,4.831054,1426671
1/20/1994,4.83105405539,4.87211117201,4.694197,4.694197,556237
1/21/1994,4.72156770349,4.74893911047,4.68051059302,4.707882,404619
1/24/1994,4.72157055882,4.73525627059,4.653142,4.653142,466727
1/25/1994,4.653142,4.66682771176,4.63945628824,4.653142,324243
1/26/1994,4.65313918605,4.73525340698,4.61208207558,4.707882,997391
1/27/1994,4.70788419155,4.87211270986,4.70788419155,4.858427,1509786
1/28/1994,4.817369,4.83105470739,4.80368329261,4.817369,346164
1/31/1994,4.84473970538,4.96791105382,4.831054,4.831054,898747
2/1/1994,4.85842814763,4.92685671309,4.85842814763,4.913171,800104
2/2/1994,4.88579654472,5.20056775068,4.88579654472,5.050025,1140788
2/3/1994,5.09108282609,5.09108282609,5.02265429348,5.03634,177192
2/4/1994,5.06371284153,5.10476997268,4.99528428962,5.00897,1337161
2/7/1994,4.96791010833,4.96791010833,4.91316729722,4.926853,414666
2/8/1994,4.92685504087,5.03634070845,4.89948362398,5.022655,405532
2/9/1994,5.02265656354,5.02265656354,4.89948514917,4.954228,311456
2/10/1994,4.95422607386,4.95422607386,4.817369,4.817369,1078680
2/11/1994,4.84474091209,5.00896941758,4.81736949451,4.981598,242954
2/14/1994,4.98159748864,4.98159748864,4.73525475568,4.817369,382698
2/15/1994,4.78999758523,4.84474041477,4.78999758523,4.817369,157098
2/16/1994,4.78999622093,4.80368192442,4.707882,4.707882,618345
2/17/1994,4.72156811404,4.78999663743,4.680511,4.680511,614692
2/18/1994,4.70788240936,4.72156811404,4.66682529532,4.680511,499608
2/22/1994,4.707882,4.73525340698,4.69419629651,4.707882,94989
2/23/1994,4.68051048415,4.76262470317,4.68051048415,4.748939,173538
2/24/1994,4.74893929598,4.762625,4.70788218391,4.762625,124217
2/25/1994,4.81736841143,4.87211123429,4.789997,4.789997,969076
2/28/1994,4.78999622093,4.78999622093,4.707882,4.707882,65762
3/1/1994,4.73525340698,4.73525340698,4.68051059302,4.707882,205506
3/2/1994,4.68051342353,4.68051342353,4.62577057647,4.653142,354384
3/3/1994,4.66682771176,4.68051342353,4.63945628824,4.653142,105949
3/4/1994,4.63945377391,4.73525370435,4.63945377391,4.721568,224687
3/7/1994,4.73525381871,4.73525381871,4.680511,4.680511,306889
3/8/1994,4.65314155224,4.66682726269,4.584713,4.584713,590031
3/9/1994,4.55734078882,4.55734078882,4.3520551677,4.406798,695981
3/10/1994,4.39311152848,4.42048293987,4.3109972943,4.324683,1021138
3/11/1994,4.33837114642,4.4067997134,4.31099971963,4.393114,468554
3/14/1994,4.3931129003,4.54365570997,4.3931129003,4.52997,352557
3/15/1994,4.5710261716,4.6668261213,4.5710261716,4.625769,509655
3/16/1994,4.6120832929,4.6394547071,4.5983975858,4.625769,523356
3/17/1994,4.6120859886,4.8310574302,4.6120859886,4.803686,483168
3/18/1994,4.84474091209,4.981598,4.81736949451,4.981598,1003784
3/21/1994,5.00897,5.02265571038,4.96791286885,5.00897,928888
3/22/1994,4.98159803774,5.09108370889,4.98159803774,5.077398,1231211
3/23/1994,4.98159871074,4.98159871074,4.92685586777,4.967913,824765
3/24/1994,4.89948159444,4.95422440556,4.87211018889,4.926853,769964
3/25/1994,4.91316729722,4.96791010833,4.91316729722,4.926853,582724
3/28/1994,4.91316774425,4.91316774425,4.762625,4.762625,1815763
3/29/1994,4.74893975893,4.74893975893,4.598397,4.598397,705115
3/30/1994,4.58471344118,4.66682771176,4.47522774706,4.653142,647573
3/31/1994,4.65313959064,4.680511,4.61208247661,4.680511,169885
4/4/1994,4.65314011869,4.65314011869,4.59839729377,4.612083,508742
4/5/1994,4.62576841071,4.66682552679,4.58471129464,4.598397,1073200
4/6/1994,4.65313918605,4.707882,4.57102496512,4.707882,274008
4/7/1994,4.70788240936,4.76262522807,4.680511,4.680511,655793
4/8/1994,4.66682529532,4.680511,4.65313959064,4.680511,193632
4/11/1994,4.659679941,4.659679941,4.61856511799,4.645975,796245
4/12/1994,4.65968122093,4.74191088953,4.65968122093,4.714501,1255933
4/13/1994,4.7145022069,4.769322,4.70079725862,4.769322,688619
4/14/1994,4.7282045339,4.851549,4.70079465254,4.851549,1460239
4/15/1994,4.85155022872,5.153059,4.79673045213,5.153059,942178
4/18/1994,5.09823994609,5.09823994609,4.98860037736,5.084535,1517700
4/19/1994,5.07083084469,5.09824074114,5.029716,5.029716,802629
4/20/1994,5.01601,5.01601,5.00230505464,5.01601,829080
4/21/1994,5.00230615489,5.05712594837,5.00230615489,5.043421,547247
4/22/1994,5.02971212466,5.08453187534,5.01600718699,5.057122,378513
4/25/1994,5.05712460789,5.207879,5.02971471842,5.207879,568225
4/26/1994,5.20787910995,5.235289,5.20787910995,5.235289,1249548
4/28/1994,5.221582,5.27640175853,5.20787706037,5.221582,976837
4/29/1994,5.207879,5.207879,5.16676416579,5.207879,610181
5/2/1994,5.1804671811,5.221582,5.16676224147,5.221582,743345
5/3/1994,5.2078787766,5.2078787766,5.13935405585,5.153059,639367
5/4/1994,5.15305922105,5.207879,5.15305922105,5.207879,408611
5/5/1994,5.23528984169,5.23528984169,5.194175,5.194175,75702
5/6/1994,5.19417070513,5.37233487179,5.19417070513,5.344925,391282
5/9/1994,5.35863389203,5.35863389203,5.29010916195,5.331224,517149
5/10/1994,5.38603980769,5.38603980769,5.344925,5.344925,721455
5/11/1994,5.3449257513,5.35863068912,5.290106,5.290106,213426
5/12/1994,5.30381235115,5.39974694148,5.29010740967,5.386042,919376
5/13/1994,5.35863205867,5.372337,5.35863205867,5.372337,293689
5/16/1994,5.38604389258,5.38604389258,5.358634,5.358634,334733
5/17/1994,5.34492645669,5.34492645669,5.16676224147,5.221582,1190264
5/18/1994,5.235289,5.24899394503,5.1804692199,5.235289,1616204
5/19/1994,5.24899264987,5.24899264987,5.166763,5.166763,234404
5/20/1994,5.1804687185,5.1804687185,5.0982390563,5.111944,352974
5/23/1994,5.08453187534,5.09823681301,5.057122,5.057122,238052
5/24/1994,5.04341681096,5.04341681096,5.002302,5.002302,327436
5/25/1994,5.01600977901,5.01600977901,4.96119,4.96119,204305
5/26/1994,4.90636882254,4.93377870423,4.83784411831,4.865254,958595
5/27/1994,4.87895806162,4.90636793838,4.85154818487,4.892663,80263
5/31/1994,4.86525482955,4.89266471591,4.82414,4.82414,858266
6/1/1994,4.82414205099,4.86525689802,4.82414205099,4.837847,548159
6/2/1994,4.82414189714,4.85155179429,4.796732,4.796732,684059
6/3/1994,4.78302589049,4.78302589049,4.68709127378,4.755616,155965
6/6/1994,4.82414189714,4.82414189714,4.78302705143,4.796732,151405
6/7/1994,4.79673132022,4.89266594663,4.79673132022,4.878961,984133
6/8/1994,4.87896169143,4.87896169143,4.76932210286,4.796732,315579
6/9/1994,4.76932077907,4.76932077907,4.714501,4.714501,347502
6/10/1994,4.71449880112,4.892663,4.71449880112,4.892663,188800
6/13/1994,4.89266342308,5.00230293956,4.89266342308,4.988598,840025
6/14/1994,5.00230615489,5.043421,5.00230615489,5.043421,542687
6/15/1994,5.04342094823,5.07083084469,5.01601105177,5.029716,332908
6/16/1994,5.01600823784,5.070828,5.01600823784,5.070828,150493
6/17/1994,5.04341858201,5.180468,5.04341858201,5.180468,437798
6/20/1994,5.20787967914,5.20787967914,5.04342032086,5.12565,199289
6/21/1994,5.07082846561,5.180468,5.07082846561,5.180468,189712
6/22/1994,5.2352877672,5.2352877672,5.1530581164,5.180468,60197
6/23/1994,5.23529027717,5.23529027717,5.043421,5.043421,224827
6/24/1994,5.04341989071,5.04341989071,4.90637043716,5.01601,163262
6/27/1994,4.98860010929,5.04341989071,4.93378032787,5.01601,155965
6/28/1994,4.96119021858,5.01601,4.90637043716,5.01601,217530
6/29/1994,5.01601110326,5.043421,4.96119130978,5.043421,108081
6/30/1994,4.98860120652,5.043421,4.9063715163,5.043421,502099
7/1/1994,5.04341966851,5.04341966851,4.9337801105,4.96119,171470
7/5/1994,4.98859931818,4.98859931818,4.82414,4.82414,82543
7/6/1994,4.82413872527,4.988598,4.79672884615,4.988598,208410
7/7/1994,5.01601159777,5.01601159777,4.906372,4.906372,41043
7/8/1994,4.87895977273,4.90636965909,4.82414,4.82414,27362
7/11/1994,4.85817667416,4.885624,4.83072934831,4.885624,58748
7/12/1994,4.885624,4.91307132584,4.83072934831,4.885624,112488
7/13/1994,4.91306995455,4.96796459091,4.74838604545,4.830728,315604
7/14/1994,4.85817494828,4.85817494828,4.775833,4.775833,82886
7/15/1994,4.74838631977,4.74838631977,4.69349168023,4.720939,78331
7/18/1994,4.77583368,4.803281,4.6660444,4.803281,297843
7/19/1994,4.77583363953,4.77583363953,4.720939,4.720939,163039
7/20/1994,4.74838697059,4.74838697059,4.666045,4.666045,35978
7/21/1994,4.55625442105,4.693491,4.55625442105,4.693491,262776
7/22/1994,4.6660439521,4.6660439521,4.55625468263,4.583702,42809
7/25/1994,4.61114713043,4.61114713043,4.419016,4.419016,213135
7/26/1994,4.44646596226,4.44646596226,4.33667667925,4.364124,261865
7/27/1994,4.39156860759,4.41901591139,4.3092266962,4.336674,627566
7/28/1994,4.3366763625,4.391571,4.3366763625,4.391571,390293
7/29/1994,4.39157132075,4.39157132075,4.364124,4.364124,238638
8/1/1994,4.3366763625,4.391571,4.3366763625,4.391571,705897
8/2/1994,4.36412368125,4.391571,4.3366763625,4.391571,246381
8/3/1994,4.36412368125,4.41901831875,4.30922904375,4.391571,490485
8/4/1994,4.36412368125,4.4464656375,4.3366763625,4.391571,178068
8/5/1994,4.36412288235,4.39157019608,4.199439,4.199439,265508
8/8/1994,4.254334,4.30922863226,4.22688668387,4.254334,832959
8/9/1994,4.2268870875,4.391571,4.19943976875,4.391571,1684135
8/10/1994,4.446464,4.50135861728,4.41901669136,4.446464,683127
8/11/1994,4.41901864151,4.47391328302,4.364124,4.364124,372076
8/12/1994,4.36412368125,4.41901831875,4.3366763625,4.391571,635763
8/15/1994,4.39157132075,4.44646596226,4.364124,4.364124,81519
8/16/1994,4.39156860759,4.39156860759,4.336674,4.336674,342474
8/17/1994,4.33667667925,4.39157132075,4.30922935849,4.364124,169415
8/18/1994,4.3641213038,4.3641213038,4.3092266962,4.336674,260043
8/19/1994,4.33667732484,4.35040098726,4.30923,4.30923,376175
8/22/1994,4.33667627273,4.33667627273,4.226887,4.226887,156208
8/23/1994,4.28178131613,4.30922863226,4.19943936774,4.254334,522819
8/24/1994,4.28177939241,4.41901591139,4.28177939241,4.336674,1088449
8/25/1994,4.36412288235,4.36412288235,4.17199168627,4.199439,880322
8/26/1994,4.226887,4.28178163636,4.08965040909,4.226887,1220064
8/29/1994,4.28178262252,4.28178262252,4.06220402649,4.144546,1910022
8/30/1994,4.14454504545,4.226887,4.11709772727,4.226887,1112130
8/31/1994,4.226887,4.30922895455,4.17199236364,4.226887,1256497
9/1/1994,4.19943936774,4.28178131613,4.19943936774,4.254334,1101655
9/2/1994,4.3092266962,4.336674,4.25433208861,4.336674,285091
9/6/1994,4.30922678261,4.419016,4.28177947826,4.419016,452230
9/7/1994,4.44646377108,4.61114761446,4.44646377108,4.556253,1534303
9/8/1994,4.50135983908,4.775833,4.50135983908,4.775833,2191926
9/9/1994,4.7209374878,4.7209374878,4.501359,4.501359,1576657
9/12/1994,4.55625362195,4.58370093293,4.501359,4.501359,652158
9/13/1994,4.528806,4.55625330909,4.50135869091,4.528806,155297
9/14/1994,4.5013597381,4.611149,4.5013597381,4.611149,431280
9/15/1994,4.611149,4.66604363095,4.58370168452,4.611149,1184997
9/16/1994,4.6385970407,4.720939,4.61114972093,4.720939,489118
9/19/1994,4.7209382619,4.7209382619,4.611149,4.611149,426271
9/20/1994,4.55625362195,4.55625362195,4.3915697561,4.501359,282814
9/21/1994,4.501360275,4.501360275,4.3366763625,4.391571,345206
9/22/1994,4.4464656375,4.4464656375,4.391571,4.391571,77421
9/23/1994,4.44646377108,4.58370030723,4.44646377108,4.556253,519176
9/26/1994,4.52880705357,4.611149,4.52880705357,4.611149,192186
9/27/1994,4.58370030723,4.58370030723,4.52880569277,4.556253,308773
9/28/1994,4.55625330909,4.58370061818,4.528806,4.528806,51917
9/29/1994,4.55625330909,4.55625330909,4.50135869091,4.528806,153931
9/30/1994,4.55625393865,4.55625393865,4.44646468712,4.473912,72411
10/3/1994,4.47391130864,4.50135861728,4.446464,4.446464,113854
10/4/1994,4.47391328302,4.47391328302,4.364124,4.364124,292378
10/5/1994,4.3641213913,4.419016,4.3641213913,4.419016,114309
10/6/1994,4.446464,4.50135861728,4.41901669136,4.446464,213135
10/7/1994,4.48055171598,4.67296804734,4.48055171598,4.64548,250108
10/10/1994,4.64547796471,4.72794207059,4.64547796471,4.672966,391079
10/11/1994,4.672966,4.72794207059,4.672966,4.672966,373798
10/12/1994,4.61799112727,4.61799112727,4.535527,4.535527,176895
10/13/1994,4.59050196429,4.64547803571,4.56301392857,4.61799,324686
10/14/1994,4.61799,4.61799,4.56301392857,4.61799,171892
10/17/1994,4.67296607143,4.67296607143,4.61799,4.61799,100043
10/18/1994,4.61798888372,4.727941,4.61798888372,4.727941,174166
10/19/1994,4.700454,4.78291810526,4.700454,4.700454,268298
10/20/1994,4.67296607143,4.70045410714,4.59050196429,4.61799,197813
10/21/1994,4.56301495808,4.61799104192,4.56301495808,4.590503,75942
10/24/1994,4.61798992941,4.70045403529,4.56301385882,4.672966,82763
10/25/1994,4.67296607143,4.70045410714,4.56301392857,4.61799,276483
10/26/1994,4.61799273988,4.755433,4.59050468786,4.755433,582980
10/27/1994,4.72794183051,4.94784610169,4.72794183051,4.865382,1760766
10/28/1994,4.83789480663,5.00282303867,4.81040676796,4.975335,725315
10/31/1994,4.94784610169,4.94784610169,4.8378939661,4.865382,115959
11/1/1994,4.86538196629,4.89287,4.81040589888,4.89287,80944
11/2/1994,4.86538409143,4.86538409143,4.78291995429,4.810408,397445
11/3/1994,4.8378939661,4.8928700339,4.8104059322,4.865382,61390
11/4/1994,4.810408,4.86538409143,4.810408,4.810408,270117
11/7/1994,4.83789508046,4.83789508046,4.782919,4.782919,165526
11/8/1994,4.755433,4.78292105202,4.72794494798,4.755433,144153
11/9/1994,4.782919,4.81040704023,4.782919,4.782919,373344
11/10/1994,4.782919,4.81040704023,4.782919,4.782919,69120
11/11/1994,4.78291810526,4.81040614035,4.700454,4.700454,91858
11/14/1994,4.67296607143,4.67296607143,4.59050196429,4.61799,142789
11/15/1994,4.61799195266,4.64548,4.59050390533,4.64548,189173
11/16/1994,4.59050308485,4.61799112727,4.535527,4.535527,175985
11/17/1994,4.48055015094,4.48055015094,4.31562192453,4.370598,1125944
11/18/1994,4.31562420915,4.31562420915,4.06823173856,4.205672,1778954
11/21/1994,4.23315807895,4.26064611842,4.15069396053,4.178182,897663
11/22/1994,4.123205,4.15069303333,4.06822893333,4.123205,636185
11/23/1994,4.15069108163,4.15069108163,3.95827493878,4.040739,1082744
11/25/1994,4.01325202759,4.04074005517,3.985764,3.985764,51840
11/28/1994,4.04074005517,4.04074005517,3.93078794483,3.985764,1472913
11/29/1994,3.98576295918,4.06822702041,3.93078691837,4.040739,1451996
11/30/1994,4.06822808276,4.06822808276,3.985764,3.985764,466566
12/1/1994,3.98576685811,4.0957190473,3.95827881081,4.068231,577069
12/2/1994,4.068231,4.12320709459,4.068231,4.068231,668472
12/5/1994,4.0407423,4.09571838571,3.848326,3.848326,1152319
12/6/1994,3.848326,3.90330208571,3.848326,3.848326,755328
12/7/1994,3.84832383562,4.013252,3.82083580822,4.013252,248289
12/8/1994,3.98576483333,4.23315713333,3.98576483333,4.123205,628455
12/9/1994,4.06822702041,4.06822702041,4.01325097959,4.040739,668927
12/12/1994,4.06822697987,4.12320302013,4.06822697987,4.095715,590257
12/13/1994,4.09571788158,4.20567003947,4.09571788158,4.178182,463838
12/14/1994,4.20567077848,4.3705990443,4.20567077848,4.343111,601625
12/15/1994,4.37059610323,4.37059610323,4.23315597419,4.260644,131875
12/16/1994,4.260644,4.28813202581,4.23315597419,4.260644,355609
12/19/1994,4.26064503247,4.26064503247,4.17818093506,4.233157,485211
12/20/1994,4.1781790604,4.23315510067,4.06822697987,4.095715,346969
12/21/1994,4.12320709459,4.12320709459,4.0407429527,4.068231,721222
12/22/1994,4.09571611034,4.09571611034,3.985764,3.985764,322867
12/23/1994,4.013252,4.0407400274,3.9857639726,4.013252,33651
12/27/1994,4.04074416667,4.04074416667,3.90330388889,3.95828,238285
12/28/1994,3.95827493878,4.040739,3.95827493878,4.040739,260113
12/29/1994,4.09571890728,4.23315913907,4.09571890728,4.150695,251472
12/30/1994,4.15069303333,4.2056691,4.123205,4.123205,170983
1/3/1995,4.178182,4.20567003947,4.09571788158,4.178182,147336
1/4/1995,4.17818304636,4.23315913907,4.12320695364,4.150695,77761
1/5/1995,4.095715,4.12320302013,4.04073895973,4.095715,295583
1/6/1995,4.12320410959,4.12320410959,3.95827594521,4.013252,460200
1/9/1995,3.99232657343,4.01985986014,3.93726,3.93726,696429
1/10/1995,3.90972921739,3.90972921739,3.799596,3.799596,328692
1/11/1995,3.79959314894,3.882193,3.79959314894,3.882193,141646
1/12/1995,3.8546626087,3.90972921739,3.799596,3.799596,424939
1/13/1995,3.79959244286,3.88219227857,3.77205916429,3.854659,75817
1/16/1995,3.799596,3.81336265217,3.77206269565,3.799596,545702
1/17/1995,3.79959314894,3.90972628369,3.79959314894,3.882193,496671
1/18/1995,3.8821945274,4.04739429452,3.8821945274,4.019861,687803
1/19/1995,4.01986159722,4.01986159722,3.964795,3.964795,281477
1/20/1995,3.992324,3.992324,3.96479073103,3.992324,86713
1/23/1995,3.93725883571,3.96479211429,3.854659,3.854659,146186
1/24/1995,3.85465765517,4.01985726897,3.85465765517,3.992324,392252
1/25/1995,3.99232829861,3.99232829861,3.93726170139,3.964795,147094
1/26/1995,3.96479383784,4.074927,3.96479383784,4.074927,164800
1/27/1995,4.01985726897,4.04739053793,3.96479073103,3.992324,581115
1/30/1995,3.99232657343,3.99232657343,3.90972671329,3.93726,219280
1/31/1995,3.909728,3.99232788732,3.909728,3.909728,211562
2/1/1995,3.90972671329,3.96479328671,3.90972671329,3.93726,52209
2/2/1995,3.93726,3.96479328671,3.90972671329,3.93726,47215
2/3/1995,3.964795,3.99232829861,3.90972840278,3.964795,276483
2/6/1995,4.07492878947,4.24012860526,4.01986218421,4.185062,739104
2/7/1995,4.24012717333,4.24012717333,4.129994,4.129994,496217
2/8/1995,4.15752869737,4.24012860526,4.15752869737,4.185062,623790
2/9/1995,4.21259388,4.21259388,4.129994,4.129994,316435
2/10/1995,4.15752839869,4.212595,4.12999509804,4.212595,276483
2/13/1995,4.24012869677,4.32272860645,4.24012869677,4.267662,300545
2/14/1995,4.267662,4.267662,4.18506209032,4.267662,156174
2/15/1995,4.26766208861,4.3777953038,4.24012878481,4.350262,314618
2/16/1995,4.3502604125,4.43286029375,4.3502604125,4.405327,542070
2/17/1995,4.40532780488,4.515461,4.40532780488,4.515461,296459
2/21/1995,4.515461,4.515461,4.48792770122,4.515461,104873
2/22/1995,4.487929,4.51546230675,4.46039569325,4.487929,243341
2/23/1995,4.51546070303,4.542994,4.46039410909,4.542994,395884
2/24/1995,4.54299429878,4.54299429878,4.48792770122,4.515461,319158
2/27/1995,4.51546070303,4.542994,4.48792740606,4.542994,433111
2/28/1995,4.5705277006,4.598061,4.5429944012,4.598061,365920
3/1/1995,4.57052729697,4.57052729697,4.542994,4.542994,80357
3/2/1995,4.54299607143,4.625596,4.54299607143,4.625596,248335
3/3/1995,4.625596,4.65312930952,4.59806269048,4.625596,294643
3/6/1995,4.6255942994,4.6255942994,4.5429944012,4.598061,268311
3/7/1995,4.62559419512,4.62559419512,4.515461,4.515461,459897
3/8/1995,4.5429944012,4.6531275988,4.5154611018,4.598061,502573
3/9/1995,4.62559370414,4.653127,4.57052711243,4.653127,203844
3/10/1995,4.62559389091,4.62559389091,4.542994,4.542994,193402
3/13/1995,4.570528,4.5980613012,4.5429946988,4.570528,114406
3/14/1995,4.57052938095,4.625596,4.57052938095,4.625596,115314
3/15/1995,4.62559143529,4.70819128235,4.62559143529,4.680658,360018
3/16/1995,4.65312847701,4.8458616092,4.65312847701,4.790795,721399
3/17/1995,4.7632616954,4.8458616092,4.68066178161,4.790795,559322
3/20/1995,4.7632595848,4.84585946199,4.6531264152,4.708193,484413
3/21/1995,4.68066261905,4.68066261905,4.625596,4.625596,181144
3/22/1995,4.680658,4.73572456471,4.65312471765,4.680658,396338
3/23/1995,4.70819439884,4.79079430058,4.68066109827,4.763261,317342
3/24/1995,4.76325784706,4.76325784706,4.65312471765,4.680658,789953
3/27/1995,4.70819352273,4.84586,4.68066022727,4.84586,356840
3/28/1995,4.84586139326,4.900928,4.84586139326,4.900928,305085
3/29/1995,4.90092838889,5.01106161111,4.90092838889,4.955995,519824
3/30/1995,4.98352691489,5.17626,4.98352691489,5.17626,470339
3/31/1995,5.20379168528,5.47912457868,5.20379168528,5.424058,1517254
4/3/1995,5.42405669634,5.42405669634,5.258857,5.258857,1422823
4/4/1995,5.25885989362,5.25885989362,5.14872670213,5.17626,755902
4/5/1995,5.17626069841,5.25886060317,5.14872739683,5.203794,1185836
4/6/1995,5.17625947541,5.17625947541,5.038593,5.038593,799032
4/7/1995,5.0176399,5.0727788,4.962501,4.962501,257984
4/10/1995,4.93493174457,5.072779,4.93493174457,5.072779,595768
4/11/1995,5.10034845109,5.10034845109,5.01764009783,5.072779,757632
4/12/1995,5.07277855135,5.100348,5.0452091027,5.100348,125138
4/13/1995,5.12791790217,5.18305680435,5.072779,5.072779,217178
4/17/1995,5.10034845109,5.12791790217,5.072779,5.072779,150982
4/18/1995,5.07277869663,5.07277869663,4.907362,4.907362,912695
4/19/1995,4.93493155,4.962501,4.87979265,4.962501,206750
4/20/1995,4.96250075676,5.100348,4.96250075676,5.100348,403526
4/21/1995,5.12791698462,5.45875033846,5.12791698462,5.376042,2146851
4/24/1995,5.40361271579,5.45875162105,5.238196,5.238196,1066397
4/25/1995,5.18305745455,5.21062690909,5.155488,5.155488,116977
4/26/1995,5.18305634595,5.18305634595,5.0452091027,5.100348,163224
4/27/1995,5.10034983425,5.10034983425,4.990072,4.990072,442972
4/28/1995,5.04521,5.04521,5.01764054645,5.04521,301964
5/1/1995,5.072779,5.10034845109,5.04520954891,5.072779,599848
5/2/1995,5.072779,5.072779,5.01764009783,5.072779,460654
5/3/1995,5.072779,5.12791790217,5.072779,5.072779,226246
5/4/1995,5.07277945355,5.07277945355,5.01764054645,5.04521,243929
5/5/1995,5.01764145856,5.07278037569,4.990072,4.990072,327808
5/8/1995,4.990072,5.01764145856,4.96250254144,4.990072,253904
5/9/1995,4.99006976882,5.127917,4.96250032258,5.127917,577178
5/10/1995,5.10034873684,5.238196,5.10034873684,5.238196,800705
5/11/1995,5.21062533871,5.21062533871,5.10034755376,5.127917,251637
5/12/1995,5.12791744865,5.12791744865,5.07277855135,5.100348,43979
5/15/1995,5.12791611702,5.183055,5.10034667553,5.183055,316926
5/16/1995,5.21062690909,5.23819636364,5.155488,5.155488,48967
5/17/1995,5.15548644624,5.15548644624,5.10034755376,5.127917,335062
5/18/1995,5.12791836066,5.12791836066,4.9900710929,5.04521,121964
5/19/1995,5.04520954891,5.072779,5.04520954891,5.072779,148261
5/22/1995,5.07277991209,5.07277991209,5.017641,5.017641,72544
5/23/1995,5.04520779255,5.21062444149,5.04520779255,5.183055,386297
5/24/1995,5.18305587692,5.376042,5.15548643077,5.376042,509168
5/25/1995,5.32090454639,5.40361290722,5.29333509278,5.348474,904987
5/26/1995,5.34847335079,5.34847335079,5.23819554974,5.265765,201309
5/30/1995,5.23819564767,5.320904,5.23819564767,5.320904,344130
5/31/1995,5.348474,5.348474,5.29333509278,5.348474,288816
6/1/1995,5.34847345078,5.37604290155,5.320904,5.320904,29471
6/2/1995,5.34847335079,5.37604280105,5.23819554974,5.265765,228513
6/5/1995,5.293334,5.293334,5.26576455208,5.293334,155969
6/6/1995,5.29333333333,5.29333333333,5.18305555556,5.210625,60302
6/7/1995,5.23819478495,5.23819478495,5.127917,5.127917,348664
6/8/1995,5.12791744865,5.12791744865,5.07277855135,5.100348,274307
6/9/1995,5.100348,5.12791744865,5.07277855135,5.100348,739042
6/12/1995,5.10034845109,5.10034845109,5.04520954891,5.072779,213098
6/13/1995,5.01764054645,5.04521,5.01764054645,5.04521,135113
6/14/1995,5.100348,5.100348,5.0452091027,5.100348,340503
6/15/1995,5.07277810753,5.127917,5.04520866129,5.127917,211738
6/16/1995,5.12791882418,5.12791882418,5.017641,5.017641,215365
6/19/1995,4.99007154396,5.04521045604,4.93493263187,5.017641,452946
6/20/1995,5.04521154386,5.04521154386,4.714378,4.714378,893198
6/21/1995,4.71437784431,4.71437784431,4.57653053892,4.6041,560402
6/22/1995,4.60409992121,4.60409992121,4.46625261818,4.548961,864634
6/23/1995,4.57652918824,4.71437645294,4.57652918824,4.686807,2899948
6/26/1995,4.65923907602,4.74194746199,4.63166961404,4.714378,399445
6/27/1995,4.68680566474,4.79708344509,4.68680566474,4.769514,563123
6/28/1995,4.74194785714,4.74194785714,4.60410053571,4.63167,1146195
6/29/1995,4.63166284337,4.63166284337,4.576524,4.576524,283828
6/30/1995,4.60409786207,4.797084,4.60409786207,4.797084,740856
7/3/1995,4.76951707429,4.824656,4.71437814857,4.824656,359999
7/5/1995,4.79708424852,4.79708424852,4.659237,4.659237,140554
7/6/1995,4.63167,4.65923946429,4.60410053571,4.63167,771687
7/7/1995,4.63167,4.63167,4.60410053571,4.63167,308765
7/10/1995,4.6592372561,4.68680670732,4.52139,4.52139,723627
7/11/1995,4.52139153939,4.65923884242,4.41111369697,4.548961,659697
7/12/1995,4.58319775,4.666026625,4.58319775,4.638417,379849
7/13/1995,4.74885305389,4.80407227545,4.610805,4.610805,925402
7/14/1995,4.63841320482,4.66602280723,4.55558439759,4.583194,323709
7/17/1995,4.58319538922,4.63841461078,4.55558577844,4.610805,521104
7/18/1995,4.61080478107,4.666024,4.61080478107,4.666024,87831
7/19/1995,4.638417,4.666026625,4.58319775,4.638417,149404
7/20/1995,4.63841439053,4.7488528284,4.63841439053,4.666024,429198
7/21/1995,4.66602477193,4.74885361404,4.61080554386,4.721244,280699
7/24/1995,4.6936327907,4.77646160465,4.6936327907,4.748852,199658
7/25/1995,4.7764623908,4.8316816092,4.7764623908,4.804072,389357
7/26/1995,4.77646322807,4.77646322807,4.721244,4.721244,276171
7/27/1995,4.666024,4.7488528284,4.61080478107,4.666024,857944
7/28/1995,4.6936327907,4.748852,4.6384135814,4.748852,126314
7/31/1995,4.72124476301,4.8040736185,4.72124476301,4.776464,245838
8/1/1995,4.74885305389,4.74885305389,4.58319538922,4.610805,603050
8/2/1995,4.610805,4.63841461078,4.58319538922,4.610805,341819
8/3/1995,4.58319592982,4.721244,4.52797670175,4.721244,625235
8/4/1995,4.721244,4.721244,4.66602477193,4.721244,632478
8/7/1995,4.748852,4.77646160465,4.72124239535,4.748852,114996
8/8/1995,4.77646322807,4.80407284211,4.721244,4.721244,345441
8/9/1995,4.77646385294,4.77646385294,4.693635,4.693635,795918
8/10/1995,4.69363240964,4.72124201205,4.583194,4.583194,187887
8/11/1995,4.55558691176,4.693635,4.55558691176,4.693635,395695
8/14/1995,4.721245875,4.721245875,4.638417,4.638417,152120
8/15/1995,4.69363625,4.721245875,4.638417,4.638417,123145
8/16/1995,4.610805,4.610805,4.52797616766,4.610805,273908
8/17/1995,4.5831951716,4.69363360947,4.5831951716,4.666024,420596
8/18/1995,4.66602552601,4.85929285549,4.66602552601,4.776464,613916
8/21/1995,4.83168323699,4.85929285549,4.776464,4.776464,651493
8/22/1995,4.80407315254,4.886902,4.80407315254,4.886902,410183
8/23/1995,4.91451176667,5.05255985,4.91451176667,4.969731,359476
8/24/1995,4.94211982386,4.96972943182,4.83168139205,4.859291,2271854
8/25/1995,4.859291,4.88690060795,4.859291,4.859291,181096
8/28/1995,4.85929238418,4.91451161582,4.83168276836,4.886902,316918
8/29/1995,4.886902,4.91451161582,4.85929238418,4.886902,63836
8/30/1995,4.96973138122,4.997341,4.96973138122,4.997341,328689
8/31/1995,5.02495052688,5.16299861828,5.02495052688,5.135389,132200
9/1/1995,5.16299657068,5.273435,5.16299657068,5.273435,488054
9/5/1995,5.2734357772,5.328655,5.2182165544,5.328655,617085
9/6/1995,5.27343638542,5.301046,5.21821715625,5.301046,470397
9/7/1995,5.3010453886,5.328655,5.10777810881,5.328655,321446
9/8/1995,5.32865584737,5.38387507895,5.245827,5.245827,280699
9/11/1995,5.2734357772,5.328655,5.2458261658,5.328655,261231
9/12/1995,5.30104592893,5.439094,5.21821708629,5.439094,353590
9/13/1995,5.41148321649,5.41148321649,5.32865439175,5.356264,619802
9/14/1995,5.32865576923,5.383875,5.24582692308,5.383875,393884
9/15/1995,5.35626847475,5.466707,5.35626847475,5.466707,250365
9/18/1995,5.43909476382,5.60475247236,5.41148514573,5.494314,554607
9/19/1995,5.439094,5.46670361421,5.30104592893,5.439094,571358
9/20/1995,5.41148445833,5.41148445833,5.301046,5.301046,322351
9/21/1995,5.3562646114,5.3562646114,5.2458261658,5.328655,510691
9/22/1995,5.32865608511,5.32865608511,5.10777914894,5.190608,162533
9/25/1995,5.16299924324,5.16299924324,5.08017037838,5.10778,207355
9/26/1995,5.10777947514,5.10777947514,4.997341,4.997341,262589
9/27/1995,5.02494977174,5.080169,4.96973054348,5.080169,259420
9/28/1995,5.1353887,5.27343678333,4.969731,4.969731,298356
9/29/1995,4.94212004598,4.94212004598,4.804072,4.804072,719405
10/2/1995,4.83168156425,5.02494882682,4.80407195531,4.94212,620707
10/3/1995,4.91451214365,5.02495061878,4.91451214365,4.997341,344535
10/4/1995,4.96973138122,4.997341,4.91451214365,4.997341,261231
10/5/1995,4.96973084746,4.96973084746,4.85929238418,4.886902,86926
10/6/1995,4.85929177528,4.914511,4.85929177528,4.914511,293376
10/9/1995,4.94211982386,4.94211982386,4.859291,4.859291,54328
10/10/1995,4.83168081395,4.83168081395,4.748852,4.748852,124051
10/11/1995,4.74885361404,4.77646322807,4.721244,4.721244,187887
10/12/1995,4.75552734091,4.92141782955,4.72787892614,4.866121,700763
10/13/1995,4.86612058757,4.94906582486,4.86612058757,4.893769,256795
10/16/1995,4.89376983429,4.89376983429,4.78317616571,4.838473,213393
10/17/1995,4.81082417045,4.866121,4.78317575568,4.866121,450297
10/18/1995,4.81082553571,4.83847395833,4.644935,4.644935,2222549
10/19/1995,4.617286,4.70023125749,4.617286,4.617286,1699464
10/20/1995,4.64493673171,4.64493673171,4.534343,4.534343,377055
10/23/1995,4.56198909375,4.56198909375,4.423747,4.423747,687200
10/24/1995,4.4237478481,4.4237478481,4.34080257595,4.368451,1341396
10/25/1995,4.36844992053,4.36844992053,4.174911,4.174911,744165
10/26/1995,4.20255941722,4.25785625166,4.14726258278,4.174911,496863
10/27/1995,4.17491188462,4.313154,4.17491188462,4.313154,397852
10/30/1995,4.36845057862,4.42374742138,4.36845057862,4.396099,731054
10/31/1995,4.423747,4.45139541875,4.39609858125,4.423747,355806
11/1/1995,4.423747,4.45139541875,4.423747,4.423747,441706
11/2/1995,4.39609942405,4.4237478481,4.368451,4.368451,48375
11/3/1995,4.31315373585,4.396099,4.31315373585,4.396099,187171
11/6/1995,4.39609884076,4.39609884076,4.340802,4.340802,71884
11/7/1995,4.36844877019,4.451394,4.36844877019,4.451394,538457
11/8/1995,4.39609858125,4.423747,4.313153325,4.423747,1025375
11/9/1995,4.50669081988,4.56198763975,4.451394,4.451394,1329642
11/10/1995,4.45139568153,4.45139568153,4.340802,4.340802,621644
11/13/1995,4.39609930675,4.506693,4.36845088344,4.506693,505001
11/14/1995,4.45139584277,4.47904426415,4.36845057862,4.396099,1181803
11/15/1995,4.39609858125,4.45139541875,4.39609858125,4.423747,257700
11/16/1995,4.45139352326,4.81082281395,4.45139352326,4.755526,1182708
11/17/1995,4.783177,4.783177,4.75552857803,4.783177,1024922
11/20/1995,4.78317695181,4.78317695181,4.589638,4.589638,661882
11/21/1995,4.61728631579,4.75552842105,4.58963789474,4.72788,410511
11/22/1995,4.75552857803,4.783177,4.72788015607,4.783177,489178
11/24/1995,4.78317523529,4.78317523529,4.70023,4.70023,259056
11/27/1995,4.61728642169,4.61728642169,4.53434115663,4.589638,962080
11/28/1995,4.58963815476,4.67258342262,4.58963815476,4.644935,356259
11/29/1995,4.67258283832,4.67258283832,4.617286,4.617286,32551
11/30/1995,4.67258342262,4.67258342262,4.58963815476,4.644935,351737
12/1/1995,4.64493457988,4.72787984024,4.64493457988,4.672583,348573
12/4/1995,4.70023,4.70023,4.53433952941,4.70023,1193558
12/5/1995,4.70022918605,4.755526,4.70022918605,4.755526,521277
12/6/1995,4.78317658046,4.810825,4.78317658046,4.810825,774456
12/7/1995,4.81082417045,4.866121,4.81082417045,4.866121,814241
12/8/1995,4.83847638122,5.004367,4.81082794475,5.004367,21292795
12/11/1995,5.14260517021,5.197902,5.05965992553,5.197902,6364741
12/12/1995,5.197902,5.22555041489,5.14260517021,5.197902,3248377
12/13/1995,5.19790429167,5.39144328125,5.17025586458,5.308498,3590620
12/14/1995,5.33614671429,5.39144357143,5.225553,5.225553,2576999
12/15/1995,5.4743885625,5.50203698958,5.19790429167,5.308498,1945409
12/18/1995,5.25319659686,5.280845,5.14260298429,5.280845,1100877
12/19/1995,5.28084774742,5.363793,5.19790249485,5.363793,990110
12/20/1995,5.36379341969,5.50203551813,5.336145,5.336145,2261883
12/21/1995,5.336145,5.41909025907,5.30849658031,5.336145,2143883
12/22/1995,5.39144183938,5.44673867876,5.25319974093,5.336145,1260921
12/26/1995,5.39144183938,5.39144183938,5.336145,5.336145,554733
12/27/1995,5.33614424737,5.33614424737,5.253199,5.253199,657813
12/28/1995,5.22555162944,5.446739,5.22555162944,5.446739,1300707
12/29/1995,5.4743885625,5.4743885625,5.25320114583,5.308498,765414
1/2/1996,5.36379059487,5.41908740513,5.33614218974,5.391439,655101
1/3/1996,5.41908701571,5.41908701571,5.19789979058,5.280845,1297543
1/4/1996,5.280845,5.36379020942,5.25319659686,5.280845,1858154
1/5/1996,5.2531993299,5.39144141753,5.2531993299,5.363793,769483
1/8/1996,5.36379514286,5.419092,5.36379514286,5.419092,880701
1/9/1996,5.44674013542,5.44674013542,5.25320114583,5.308498,1071941
1/10/1996,5.30849340314,5.33614180628,5.17025138743,5.280845,583668
1/11/1996,5.14907620541,5.14907620541,5.03834338378,5.121393,1826919
1/12/1996,5.0937095914,5.149076,5.0937095914,5.149076,626733
1/15/1996,5.20444282609,5.20444282609,5.09371,5.09371,1308555
1/16/1996,5.09371,5.14907641304,5.06602679348,5.09371,1900068
1/17/1996,5.09371,5.12139320652,4.95529396739,5.09371,2575568
1/18/1996,5.09370979459,5.121393,5.06602658919,5.121393,568937
1/19/1996,5.14907641304,5.17675961957,5.09371,5.09371,906686
1/22/1996,5.12139337766,5.204443,5.12139337766,5.204443,615896
1/23/1996,5.17675941081,5.23212582162,5.121393,5.121393,481338
1/24/1996,5.14907658511,5.28749262234,5.12139337766,5.204443,609123
1/25/1996,5.20444258947,5.28749220526,5.20444258947,5.259809,782965
1/26/1996,5.23212620745,5.23212620745,5.204443,5.204443,2122225
1/29/1996,5.23212539062,5.315175,5.2044421875,5.315175,1847690
1/30/1996,5.31517479793,5.342858,5.28749159585,5.342858,1095881
1/31/1996,5.34285661026,5.42590619487,5.28749022051,5.398223,733748
2/1/1996,5.42590739698,5.59200660302,5.42590739698,5.508957,2463587
2/2/1996,5.453592,5.53664162437,5.42590879188,5.453592,1359127
2/5/1996,5.398223,5.45358938974,5.37053980513,5.398223,1042148
2/6/1996,5.39822440415,5.42590760622,5.342858,5.342858,1059306
2/7/1996,5.39822579082,5.45359220918,5.37054258163,5.425909,946873
2/8/1996,5.42590957576,5.53664242424,5.42590957576,5.481276,796511
2/9/1996,5.48127459,5.564324205,5.42590818,5.536641,1998504
2/12/1996,5.53664019139,5.89652180383,5.45359058852,5.785789,5557522
2/13/1996,5.84115665517,5.84115665517,5.53664137931,5.619691,3886381
2/14/1996,5.64737377143,5.86883940952,5.64737377143,5.813473,1772283
2/15/1996,5.78578955656,6.14567120362,5.78578955656,6.117988,1848593
2/16/1996,6.3117715,6.3117715,5.896523375,5.979573,2463135
2/20/1996,5.86884,5.95188962264,5.81347358491,5.86884,475468
2/21/1996,5.813472,5.951888,5.7857888,5.951888,1753771
2/22/1996,5.924206,5.97957241121,5.84115638318,5.924206,1468399
2/23/1996,5.8965216,5.9795712,5.813472,5.951888,745036
2/26/1996,5.86883920379,5.89652240758,5.81347279621,5.841156,628088
2/27/1996,5.78578959242,5.86883920379,5.75810638863,5.841156,601447
2/28/1996,5.8411552,5.951888,5.675056,5.675056,2512354
2/29/1996,5.70274023,5.70274023,5.48127459,5.536641,1079174
3/1/1996,5.536641,5.619690615,5.536641,5.536641,454698
3/4/1996,5.53664059406,5.61969020297,5.48127418812,5.592007,913460
3/5/1996,5.536641,5.536641,5.453591385,5.536641,647956
3/6/1996,5.5089568,5.675056,5.4812736,5.675056,936940
3/7/1996,5.647375,5.67505821078,5.59200857843,5.647375,1277850
3/8/1996,5.48127379899,5.56432340201,5.48127379899,5.508957,314270
3/11/1996,5.48127520812,5.48127520812,5.39822558376,5.453592,1542451
3/12/1996,5.425909,5.45359220918,5.39822579082,5.425909,1251209
3/13/1996,5.42590957576,5.481276,5.42590957576,5.481276,1172642
3/14/1996,5.53664059406,5.67505660891,5.53664059406,5.592007,3075872
3/15/1996,5.53664226804,5.53664226804,5.31517657732,5.370543,1187091
3/18/1996,5.39822610294,5.647375,5.37054289216,5.647375,5133075
3/19/1996,5.6473742069,5.70274062069,5.619691,5.619691,534620
3/20/1996,5.64737527273,5.64737527273,5.481276,5.481276,252409
3/21/1996,5.48127541837,5.56432504592,5.425909,5.425909,1057500
3/22/1996,5.45358938974,5.48127258462,5.398223,5.398223,1150969
3/25/1996,5.37053964179,5.564322,5.37053964179,5.564322,1024087
3/26/1996,5.56432379703,5.592007,5.53664059406,5.592007,244733
3/27/1996,5.75810579904,5.84115540191,5.67505619617,5.785789,2079329
3/28/1996,5.78578821127,5.896521,5.78578821127,5.896521,1433631
3/29/1996,5.841156,5.86883920379,5.81347279621,5.841156,1516713
4/1/1996,5.84115638318,5.924206,5.81347317757,5.924206,849793
4/2/1996,5.95189114155,6.09030721461,5.89652471233,6.062624,1260240
4/3/1996,6.00725400901,6.1733531982,5.95188761261,6.14567,1715390
4/4/1996,6.14567241818,6.14567241818,5.97957316364,6.090306,899462
4/8/1996,6.06262120183,6.06262120183,5.86883878899,6.034938,1425503
4/9/1996,6.03493958182,6.11798920909,6.03493958182,6.090306,1042147
4/10/1996,6.03493720721,6.1733531982,6.00725400901,6.14567,1532969
4/11/1996,6.096897,6.15232333636,6.06918383182,6.096897,1050944
4/12/1996,6.0968971831,6.0968971831,5.84747866197,5.902905,1262937
4/15/1996,5.84747914352,6.0137581713,5.81976597222,5.986045,1068986
4/16/1996,6.0137581713,6.0137581713,5.93061865741,5.986045,953968
4/17/1996,5.98604231776,5.98604231776,5.90290284112,5.930616,1685571
4/18/1996,5.93061578947,5.93061578947,5.76433684211,5.79205,1255270
4/19/1996,5.76433915493,5.93061816901,5.76433915493,5.902905,997269
4/22/1996,5.90290319725,6.12460848165,5.90290319725,6.041469,2771246
4/23/1996,6.1523221629,6.20774848869,6.01375634842,6.124609,1187612
4/24/1996,6.12461032444,6.34631567556,6.12461032444,6.235463,1205654
4/25/1996,6.18003717117,6.20775034234,6.152324,6.152324,605307
4/26/1996,6.09689548387,6.15232180645,6.013756,6.013756,548475
4/29/1996,5.95832967742,6.09689548387,5.95832967742,6.013756,795199
4/30/1996,6.04146896226,6.09689528302,5.84747683962,5.87519,879094
5/1/1996,5.87519065385,5.98604330769,5.764338,5.764338,911570
5/2/1996,5.819766,5.84747917143,5.73662648571,5.819766,421279
5/3/1996,5.87519,5.87519,5.79205051887,5.87519,766783
5/6/1996,5.84747917143,5.90290551429,5.819766,5.819766,568772
5/7/1996,5.87519222111,5.90290539196,5.43178148744,5.514921,1573710
5/8/1996,5.542631,5.625770465,5.48720469,5.542631,699577
5/9/1996,5.54263333333,5.653486,5.54263333333,5.653486,374370
5/10/1996,5.65348330693,5.6811964604,5.54263069307,5.598057,922846
5/13/1996,5.542631,5.59805731,5.514917845,5.542631,897588
5/14/1996,5.54263248731,5.57034564975,5.459493,5.459493,1363070
5/15/1996,5.48720438614,5.598057,5.40406492574,5.598057,2675173
5/16/1996,5.62577131841,5.62577131841,5.5426318408,5.570345,428045
5/17/1996,5.542631,5.570344155,5.48720469,5.542631,1147469
5/20/1996,5.54263349754,5.65348616749,5.54263349754,5.625773,479916
5/21/1996,5.59805835922,5.73662416019,5.59805835922,5.708911,2999928
5/22/1996,5.70891167308,5.764338,5.70891167308,5.764338,622447
5/23/1996,5.819766,5.98604502857,5.79205282857,5.819766,1302178
5/24/1996,5.764338,5.79205116346,5.70891167308,5.764338,1918312
5/28/1996,5.79205048058,5.79205048058,5.63962809951,5.708911,624703
5/29/1996,5.68119916667,5.68119916667,5.59805966667,5.653486,691909
5/30/1996,5.65348330693,5.65348330693,5.54263069307,5.598057,681084
5/31/1996,5.62577015347,5.65348330693,5.54263069307,5.598057,556143
6/3/1996,5.598057,5.598057,5.57034384653,5.598057,238154
6/4/1996,5.68119916667,5.7366255,5.653486,5.653486,738367
6/5/1996,5.708911,5.73662416019,5.68119783981,5.708911,766332
6/6/1996,5.70891079602,5.70891079602,5.5426318408,5.570345,314381
6/7/1996,5.51492033005,5.625773,5.45949399507,5.625773,792493
6/10/1996,5.62577015347,5.62577015347,5.598057,5.598057,271982
6/11/1996,5.598057,5.65348330693,5.57034384653,5.598057,858797
6/12/1996,5.5980581592,5.5980581592,5.5426318408,5.570345,1561983
6/13/1996,5.57034751515,5.57034751515,5.40406848485,5.487208,1111384
6/14/1996,5.48720616244,5.51491932487,5.459493,5.459493,1232717
6/17/1996,5.4040681701,5.43178134021,5.376355,5.376355,661237
6/18/1996,5.32092816754,5.4317808377,5.293215,5.293215,1635053
6/19/1996,5.3486418299,5.45949451031,5.3486418299,5.376355,1597615
6/20/1996,5.404068,5.43178116923,5.37635483077,5.404068,1419000
6/21/1996,5.4040675,5.4040675,5.320928,5.320928,733856
6/24/1996,5.34864116667,5.37635433333,5.29321483333,5.320928,1068986
6/25/1996,5.34864035025,5.54263248731,5.29321402538,5.459493,3105473
6/26/1996,5.51491891509,5.87519,5.51491891509,5.87519,5927238
6/27/1996,5.84747914352,5.986045,5.79205280093,5.986045,5507309
6/28/1996,6.0414701704,6.180036,6.01375700448,6.180036,6099537
7/1/1996,6.18003632618,6.457168,6.12460999142,6.457168,4261061
7/2/1996,6.34631367965,6.42945316017,6.31860051948,6.40174,2640893
7/3/1996,6.31860051948,6.40174,6.31860051948,6.40174,1569651
7/5/1996,6.40174166524,6.48488116738,6.31860216309,6.457168,849776
7/8/1996,6.429455,6.48488133621,6.37402866379,6.429455,1042825
7/9/1996,6.42945273333,6.70658431667,6.42945273333,6.651158,2752302
7/10/1996,6.65115867769,6.78972448347,6.62344551653,6.706585,3637260
7/11/1996,6.63001898696,6.74098164783,6.32487166957,6.380353,4454651
7/12/1996,6.352615,6.40809635371,6.32487432314,6.352615,1341892
7/15/1996,6.324872,6.51905666667,6.29713133333,6.324872,1935786
7/16/1996,6.26939066667,6.29713133333,5.82554,5.908762,2088990
7/17/1996,5.936504,6.18617005607,5.936504,5.936504,2557165
7/18/1996,5.99198466977,6.0474660093,5.90876266047,5.964244,1115690
7/19/1996,5.936504,5.9642446729,5.9087633271,5.936504,1490140
7/22/1996,5.93650401896,5.93650401896,5.82554132701,5.853282,1240957
7/23/1996,5.88102198165,6.047466,5.79779997248,6.047466,2594566
7/24/1996,5.99198569811,5.99198569811,5.881023,5.881023,369042
7/25/1996,5.8810192549,6.01972253922,5.659094,5.659094,859298
7/26/1996,5.68683830144,5.82554167464,5.68683830144,5.797801,521346
7/29/1996,5.770061,5.79780167788,5.71457964423,5.770061,762418
7/30/1996,5.74231936634,5.79780071287,5.54813465347,5.603616,2240392
7/31/1996,5.60361635,5.60361635,5.4371723,5.548135,1952908
8/1/1996,5.54813465347,5.65909734653,5.54813465347,5.603616,1602790
8/2/1996,5.6036175942,5.742321,5.6036175942,5.742321,1174718
8/5/1996,5.74231930806,5.853282,5.63135661611,5.853282,566857
8/6/1996,5.85328066667,5.908762,5.77005866667,5.908762,557845
8/7/1996,5.9919859726,6.075208,5.9919859726,6.075208,1737971
8/8/1996,6.075208,6.1029486758,5.9919859726,6.075208,864704
8/9/1996,6.10294734884,6.10294734884,5.964244,5.964244,714654
8/12/1996,5.99198569811,5.99198569811,5.881023,5.881023,188802
8/13/1996,5.90876367453,5.93650434906,5.881023,5.881023,438886
8/14/1996,5.88102133333,5.908762,5.88102133333,5.908762,375351
8/15/1996,5.88102427778,5.991987,5.88102427778,5.991987,373548
8/16/1996,5.93650333023,5.964244,5.8810219907,5.964244,371296
8/19/1996,5.90876330876,6.019726,5.88102263594,6.019726,382110
8/20/1996,6.04746836111,6.04746836111,5.93650563889,5.991987,1046297
8/21/1996,5.96424333333,5.96424333333,5.85328066667,5.908762,943560
8/22/1996,5.908762,5.93650266667,5.85328066667,5.908762,488001
8/23/1996,5.85328232547,5.90876367453,5.82554165094,5.881023,257744
8/26/1996,5.88102133333,5.908762,5.82554,5.908762,549734
8/27/1996,5.88102371154,5.88102371154,5.770061,5.770061,754307
8/28/1996,5.77006168116,5.77006168116,5.742321,5.742321,442490
8/29/1996,5.742321,5.77006168116,5.71458031884,5.742321,562351
8/30/1996,5.71458031884,5.742321,5.65909895652,5.742321,181141
9/3/1996,5.77006064762,5.85328267619,5.77006064762,5.825542,1463104
9/4/1996,5.79780236232,5.79780236232,5.68683963768,5.742321,401486
9/5/1996,5.71458,5.77006135922,5.65909864078,5.71458,431225
9/6/1996,5.71458031884,5.85328372464,5.6036175942,5.742321,2739208
9/9/1996,5.74232032212,5.79780167788,5.68683896635,5.770061,564604
9/10/1996,5.77006168116,5.79780236232,5.742321,5.742321,550184
9/11/1996,5.74231997143,5.90876402857,5.74231997143,5.825542,1470764
9/12/1996,5.79780071287,5.79780071287,5.57587532673,5.603616,1397767
9/13/1996,5.60361604082,5.60361604082,5.437172,5.437172,1408581
9/16/1996,5.43717336082,5.43717336082,5.35395131959,5.381692,2072317
9/17/1996,5.215246,5.27072734043,5.07654264894,5.215246,3949075
9/18/1996,5.24298796875,5.40943203125,5.21524729167,5.32621,2576090
9/19/1996,5.29846964249,5.40943235751,5.29846964249,5.353951,2434150
9/20/1996,5.353951,5.40943235751,5.353951,5.353951,677254
9/23/1996,5.38169167876,5.38169167876,5.32621032124,5.353951,1150837
9/24/1996,5.32620901587,5.38169035979,5.18750565608,5.242987,1748335
9/25/1996,5.24298796875,5.32621,5.13202526042,5.32621,1905144
9/26/1996,5.35394997959,5.46491267347,5.35394997959,5.437172,964738
9/27/1996,5.38169167876,5.40943235751,5.32621032124,5.353951,1167058
9/30/1996,5.32620928643,5.520394,5.32620928643,5.520394,1277906
10/1/1996,5.54813465347,5.603616,5.54813465347,5.603616,1077389
10/2/1996,5.60361268627,5.68683465686,5.57587202941,5.659094,872816
10/3/1996,5.65909802985,5.65909802985,5.575876,5.575876,779090
10/4/1996,5.63135735323,5.68683870647,5.575876,5.575876,666890
10/7/1996,5.57587726829,5.71458068293,5.54813658537,5.68684,1748334
10/8/1996,5.68683465686,5.74231597059,5.63135334314,5.659094,1374336
10/9/1996,5.65909734653,5.65909734653,5.54813465347,5.603616,870562
10/10/1996,5.52696070312,5.52696070312,5.27699765625,5.332545,2537025
10/11/1996,5.33254534737,5.38809269474,5.276998,5.276998,1416359
10/14/1996,5.27699700535,5.3047706738,5.16590233155,5.193676,2594633
10/15/1996,5.2214503125,5.332545,5.19367664063,5.332545,1603136
10/16/1996,5.33254695385,5.415868,5.30477327179,5.415868,2115311
10/17/1996,5.47141693,5.554738,5.44364324,5.554738,1841220
10/18/1996,5.55473333333,5.69360166667,5.52695966667,5.665828,1193576
10/21/1996,5.63805907,5.66583276,5.554738,5.554738,812369
10/22/1996,5.55473535354,5.61028270707,5.47141432323,5.499188,1681448
10/23/1996,5.47141335938,5.47141335938,5.30477132812,5.332545,3198622
10/24/1996,5.3603183299,5.4158656701,5.33254465979,5.388092,1792615
10/25/1996,5.41586630653,5.526961,5.41586630653,5.526961,1147669
10/28/1996,5.4714153641,5.49918904615,5.415868,5.415868,1120215
10/29/1996,5.41586862944,5.471416,5.36032125888,5.471416,1725554
10/30/1996,5.47141233333,5.665828,5.47141233333,5.665828,3713499
10/31/1996,5.66583064078,5.80469903883,5.66583064078,5.721378,1927634
11/1/1996,5.72137635821,5.74915002985,5.55473432836,5.582508,1380354
11/4/1996,5.55473535354,5.5825090303,5.499188,5.499188,1277288
11/5/1996,5.55473467337,5.55473467337,5.49918732663,5.526961,822271
11/6/1996,5.52696102041,5.52696102041,5.44364,5.44364,445115
11/7/1996,5.332545,5.38809234375,5.332545,5.332545,1853373
11/8/1996,5.38809494416,5.471416,5.3325475736,5.471416,1364150
11/11/1996,5.49919062,5.58251169,5.47141693,5.554738,1210228
11/12/1996,5.61028538,5.66583276,5.554738,5.554738,1334896
11/13/1996,5.582508,5.582508,5.55473432836,5.582508,1560830
11/14/1996,5.58250832673,5.610282,5.58250832673,5.610282,2505970
11/15/1996,5.58251169,5.63805907,5.52696431,5.554738,1487018
11/18/1996,5.554738,5.554738,5.49919062,5.554738,767362
11/19/1996,5.55473365854,5.693602,5.52695999024,5.693602,2567179
11/20/1996,5.99911432258,6.026888,5.83247225806,6.026888,4281482
11/21/1996,6.02688941981,6.02688941981,5.86024731604,5.888021,2200824
11/22/1996,5.91579227354,6.22130267265,5.8880186009,6.193529,3090606
11/25/1996,6.249078,6.30462536,6.1102096,6.249078,1581983
11/26/1996,6.19353003182,6.22130370909,6.08243532273,6.110209,930287
11/27/1996,6.05465865421,6.11020598131,5.943564,5.943564,818671
11/29/1996,5.94356667606,5.97134035211,5.915793,5.915793,387057
12/2/1996,5.94356568571,5.97133935714,5.80469732857,5.832471,1022551
12/3/1996,5.86024659722,5.999115,5.83247291667,5.999115,1133267
12/4/1996,5.94356398077,5.94356398077,5.63805368269,5.776922,1386655
12/5/1996,5.83247363208,5.888021,5.83247363208,5.888021,1028851
12/6/1996,5.83247202899,5.83247202899,5.749151,5.749151,269589
12/9/1996,5.693602,5.74914933659,5.55473365854,5.693602,3185571
12/10/1996,5.83246932692,5.86024299038,5.72137467308,5.776922,2137816
12/11/1996,5.7769240396,5.7769240396,5.55473465347,5.610282,619291
12/12/1996,5.66583276,5.69360645,5.554738,5.554738,1063056
12/13/1996,5.554738,5.61028538,5.47141693,5.554738,1296190
12/16/1996,5.61028033498,5.72137499507,5.61028033498,5.638054,1153070
12/17/1996,5.66582997101,5.77692467633,5.61028261836,5.749151,1010849
12/18/1996,5.77692535922,5.83247271845,5.69360432039,5.721378,1296641
12/19/1996,5.721378,5.77692535922,5.66583064078,5.721378,2666643
12/20/1996,5.66583064078,5.80469903883,5.66583064078,5.721378,468519
12/23/1996,5.86024570531,5.9435667343,5.749151,5.749151,744409
12/24/1996,5.80469835266,5.80469835266,5.72137732367,5.749151,246636
12/26/1996,5.77692467633,5.80469835266,5.749151,5.749151,414061
12/27/1996,5.74915258019,5.97134205189,5.74915258019,5.888021,693552
12/30/1996,5.88801834286,5.91579201429,5.77692365714,5.832471,1271437
12/31/1996,5.83247138614,5.83247138614,5.49918730693,5.610282,1615288
1/2/1997,5.55473705584,5.55473705584,5.471416,5.471416,1446513
1/3/1997,5.49919062,5.58251169,5.49919062,5.554738,967642
1/6/1997,5.58250832673,5.63805567327,5.5269609802,5.610282,1603136
1/7/1997,5.61028066667,5.69360166667,5.55473333333,5.665828,1404657
1/8/1997,5.638054,5.72137499507,5.58250666995,5.638054,1856974
1/9/1997,5.63805696117,5.77692535922,5.61028328155,5.721378,2539274
1/10/1997,5.66582991549,5.915793,5.63805623944,5.915793,3089706
1/13/1997,5.894661,6.00588101887,5.86685599528,5.894661,1638194
1/14/1997,5.89466201905,5.89466201905,5.81124699048,5.839052,918449
1/15/1997,5.83904900474,5.89465899526,5.78343901422,5.866854,1656177
1/16/1997,5.86685599528,5.95027100943,5.86685599528,5.894661,1690343
